0.000000	329.000000
1.000000	331.000000
2.000000	333.000000
2.000000	334.000000
3.000000	335.000000
4.000000	335.000000
4.000000	335.000000
5.000000	335.000000
7.000000	337.000000
10.000000	336.000000
12.000000	327.000000
15.000000	319.000000
17.000000	316.000000
20.000000	318.000000
22.000000	327.000000
25.000000	332.000000
27.000000	332.000000
30.000000	326.000000
32.000000	325.000000
34.000000	327.000000
37.000000	327.000000
39.000000	329.000000
43.000000	326.000000
45.000000	322.000000
48.000000	319.000000
50.000000	315.000000
53.000000	313.000000
55.000000	318.000000
58.000000	322.000000
60.000000	326.000000
63.000000	328.000000
65.000000	326.000000
68.000000	320.000000
70.000000	313.000000
73.000000	313.000000
75.000000	312.000000
78.000000	315.000000
80.000000	315.000000
83.000000	313.000000
86.000000	310.000000
89.000000	303.000000
91.000000	297.000000
94.000000	297.000000
96.000000	300.000000
99.000000	306.000000
101.000000	314.000000
104.000000	313.000000
107.000000	304.000000
110.000000	293.000000
113.000000	294.000000
116.000000	295.000000
118.000000	295.000000
121.000000	301.000000
124.000000	301.000000
128.000000	302.000000
131.000000	299.000000
133.000000	297.000000
136.000000	298.000000
139.000000	305.000000
142.000000	301.000000
145.000000	295.000000
148.000000	285.000000
150.000000	286.000000
153.000000	291.000000
156.000000	293.000000
159.000000	299.000000
162.000000	302.000000
165.000000	303.000000
167.000000	295.000000
171.000000	283.000000
174.000000	278.000000
177.000000	274.000000
180.000000	275.000000
182.000000	284.000000
185.000000	299.000000
188.000000	300.000000
191.000000	295.000000
194.000000	298.000000
197.000000	299.000000
199.000000	298.000000
202.000000	301.000000
205.000000	300.000000
208.000000	296.000000
211.000000	289.000000
214.000000	289.000000
217.000000	295.000000
220.000000	308.000000
223.000000	313.000000
226.000000	314.000000
229.000000	315.000000
231.000000	316.000000
234.000000	309.000000
237.000000	302.000000
240.000000	306.000000
243.000000	309.000000
246.000000	312.000000
248.000000	312.000000
251.000000	310.000000
254.000000	307.000000
258.000000	308.000000
261.000000	319.000000
263.000000	322.000000
266.000000	319.000000
269.000000	309.000000
272.000000	308.000000
275.000000	313.000000
278.000000	320.000000
280.000000	326.000000
283.000000	323.000000
286.000000	319.000000
289.000000	319.000000
292.000000	316.000000
295.000000	315.000000
297.000000	317.000000
301.000000	317.000000
304.000000	317.000000
307.000000	317.000000
310.000000	315.000000
312.000000	316.000000
315.000000	319.000000
318.000000	317.000000
321.000000	311.000000
324.000000	309.000000
327.000000	308.000000
329.000000	311.000000
332.000000	315.000000
335.000000	317.000000
338.000000	323.000000
342.000000	325.000000
344.000000	319.000000
347.000000	311.000000
350.000000	307.000000
353.000000	312.000000
356.000000	311.000000
359.000000	311.000000
361.000000	308.000000
364.000000	305.000000
367.000000	306.000000
370.000000	305.000000
373.000000	309.000000
376.000000	317.000000
378.000000	327.000000
381.000000	327.000000
385.000000	323.000000
388.000000	315.000000
391.000000	306.000000
393.000000	299.000000
396.000000	298.000000
399.000000	307.000000
402.000000	309.000000
405.000000	316.000000
408.000000	324.000000
410.000000	328.000000
413.000000	325.000000
416.000000	323.000000
419.000000	321.000000
422.000000	314.000000
425.000000	306.000000
428.000000	299.000000
431.000000	303.000000
434.000000	312.000000
437.000000	323.000000
440.000000	328.000000
442.000000	323.000000
445.000000	315.000000
448.000000	306.000000
451.000000	308.000000
454.000000	311.000000
457.000000	315.000000
459.000000	318.000000
462.000000	316.000000
465.000000	315.000000
468.000000	312.000000
472.000000	311.000000
474.000000	314.000000
477.000000	317.000000
480.000000	314.000000
483.000000	314.000000
486.000000	312.000000
489.000000	309.000000
491.000000	308.000000
494.000000	310.000000
497.000000	322.000000
500.000000	324.000000
503.000000	327.000000
506.000000	323.000000
508.000000	312.000000
512.000000	303.000000
515.000000	306.000000
518.000000	318.000000
521.000000	328.000000
523.000000	333.000000
526.000000	329.000000
529.000000	325.000000
532.000000	317.000000
535.000000	315.000000
538.000000	318.000000
540.000000	316.000000
543.000000	313.000000
546.000000	313.000000
549.000000	314.000000
552.000000	317.000000
556.000000	312.000000
558.000000	313.000000
561.000000	320.000000
564.000000	319.000000
567.000000	311.000000
570.000000	304.000000
572.000000	304.000000
575.000000	304.000000
578.000000	307.000000
581.000000	311.000000
584.000000	313.000000
587.000000	309.000000
589.000000	307.000000
592.000000	299.000000
595.000000	304.000000
599.000000	312.000000
602.000000	314.000000
604.000000	311.000000
607.000000	307.000000
610.000000	312.000000
613.000000	313.000000
616.000000	311.000000
619.000000	306.000000
621.000000	302.000000
624.000000	303.000000
627.000000	306.000000
630.000000	309.000000
633.000000	313.000000
636.000000	320.000000
638.000000	327.000000
642.000000	325.000000
645.000000	323.000000
648.000000	326.000000
651.000000	333.000000
653.000000	337.000000
656.000000	333.000000
659.000000	330.000000
662.000000	324.000000
665.000000	317.000000
668.000000	320.000000
670.000000	328.000000
673.000000	337.000000
676.000000	341.000000
679.000000	338.000000
683.000000	331.000000
686.000000	325.000000
688.000000	322.000000
691.000000	322.000000
694.000000	325.000000
697.000000	326.000000
700.000000	321.000000
702.000000	302.000000
705.000000	282.000000
708.000000	266.000000
711.000000	249.000000
714.000000	227.000000
716.000000	213.000000
719.000000	215.000000
722.000000	233.000000
726.000000	254.000000
729.000000	270.000000
731.000000	282.000000
734.000000	291.000000
737.000000	303.000000
740.000000	310.000000
743.000000	319.000000
746.000000	330.000000
748.000000	339.000000
751.000000	342.000000
754.000000	343.000000
757.000000	342.000000
760.000000	341.000000
763.000000	343.000000
765.000000	342.000000
769.000000	342.000000
772.000000	338.000000
775.000000	335.000000
778.000000	345.000000
780.000000	352.000000
783.000000	348.000000
786.000000	347.000000
789.000000	354.000000
792.000000	355.000000
795.000000	355.000000
797.000000	360.000000
800.000000	360.000000
803.000000	355.000000
806.000000	347.000000
809.000000	347.000000
813.000000	350.000000
815.000000	354.000000
818.000000	354.000000
821.000000	353.000000
824.000000	353.000000
827.000000	351.000000
829.000000	354.000000
832.000000	355.000000
835.000000	355.000000
838.000000	354.000000
841.000000	354.000000
844.000000	351.000000
846.000000	347.000000
849.000000	348.000000
852.000000	345.000000
856.000000	347.000000
859.000000	348.000000
862.000000	349.000000
864.000000	346.000000
867.000000	346.000000
870.000000	349.000000
873.000000	351.000000
876.000000	354.000000
878.000000	352.000000
881.000000	345.000000
884.000000	338.000000
887.000000	343.000000
890.000000	352.000000
893.000000	356.000000
896.000000	354.000000
899.000000	349.000000
902.000000	342.000000
905.000000	334.000000
908.000000	332.000000
910.000000	336.000000
913.000000	344.000000
916.000000	350.000000
919.000000	344.000000
922.000000	341.000000
925.000000	340.000000
927.000000	344.000000
930.000000	343.000000
933.000000	341.000000
936.000000	341.000000
940.000000	341.000000
943.000000	338.000000
945.000000	332.000000
948.000000	332.000000
951.000000	334.000000
954.000000	340.000000
957.000000	344.000000
959.000000	342.000000
962.000000	339.000000
965.000000	331.000000
968.000000	329.000000
971.000000	330.000000
974.000000	334.000000
976.000000	337.000000
979.000000	340.000000
983.000000	340.000000
986.000000	338.000000
989.000000	337.000000
992.000000	341.000000
994.000000	347.000000
997.000000	353.000000
1000.000000	352.000000
1003.000000	347.000000
1006.000000	345.000000
1009.000000	352.000000
1013.000000	364.000000
1016.000000	372.000000
1019.000000	374.000000
1022.000000	375.000000
1026.000000	380.000000
1029.000000	385.000000
1033.000000	383.000000
1036.000000	387.000000
1039.000000	388.000000
1042.000000	396.000000
1045.000000	404.000000
1048.000000	411.000000
1051.000000	416.000000
1055.000000	425.000000
1058.000000	424.000000
1061.000000	421.000000
1064.000000	423.000000
1068.000000	432.000000
1071.000000	436.000000
1075.000000	443.000000
1078.000000	446.000000
1081.000000	446.000000
1084.000000	445.000000
1087.000000	445.000000
1090.000000	449.000000
1093.000000	457.000000
1097.000000	461.000000
1100.000000	456.000000
1103.000000	450.000000
1106.000000	448.000000
1110.000000	451.000000
1113.000000	460.000000
1117.000000	466.000000
1120.000000	469.000000
1123.000000	464.000000
1126.000000	460.000000
1129.000000	459.000000
1132.000000	464.000000
1135.000000	469.000000
1139.000000	468.000000
1142.000000	460.000000
1145.000000	454.000000
1148.000000	453.000000
1152.000000	453.000000
1155.000000	458.000000
1159.000000	460.000000
1162.000000	461.000000
1165.000000	456.000000
1168.000000	457.000000
1171.000000	460.000000
1174.000000	460.000000
1177.000000	456.000000
1181.000000	453.000000
1184.000000	451.000000
1187.000000	452.000000
1190.000000	458.000000
1193.000000	464.000000
1197.000000	463.000000
1201.000000	453.000000
1204.000000	445.000000
1207.000000	445.000000
1210.000000	448.000000
1213.000000	453.000000
1216.000000	451.000000
1219.000000	449.000000
1223.000000	445.000000
1226.000000	446.000000
1229.000000	448.000000
1232.000000	450.000000
1235.000000	448.000000
1239.000000	446.000000
1243.000000	441.000000
1246.000000	438.000000
1249.000000	438.000000
1252.000000	440.000000
1255.000000	441.000000
1258.000000	439.000000
1261.000000	438.000000
1265.000000	434.000000
1268.000000	433.000000
1271.000000	434.000000
1274.000000	436.000000
1277.000000	434.000000
1281.000000	431.000000
1285.000000	431.000000
1288.000000	429.000000
1291.000000	424.000000
1294.000000	428.000000
1297.000000	427.000000
1300.000000	424.000000
1303.000000	420.000000
1307.000000	420.000000
1310.000000	423.000000
1313.000000	429.000000
1316.000000	423.000000
1319.000000	416.000000
1323.000000	410.000000
1327.000000	413.000000
1330.000000	413.000000
1333.000000	416.000000
1336.000000	415.000000
1339.000000	412.000000
1342.000000	403.000000
1345.000000	400.000000
1349.000000	400.000000
1352.000000	404.000000
1355.000000	405.000000
1358.000000	402.000000
1361.000000	393.000000
1364.000000	392.000000
1369.000000	395.000000
1372.000000	397.000000
1375.000000	397.000000
1378.000000	395.000000
1381.000000	386.000000
1384.000000	378.000000
1387.000000	377.000000
1391.000000	383.000000
1394.000000	385.000000
1397.000000	382.000000
1400.000000	377.000000
1403.000000	374.000000
1406.000000	375.000000
1411.000000	378.000000
1414.000000	382.000000
1417.000000	385.000000
1420.000000	385.000000
1423.000000	381.000000
1426.000000	383.000000
1429.000000	386.000000
1433.000000	390.000000
1436.000000	390.000000
1439.000000	386.000000
1442.000000	381.000000
1445.000000	381.000000
1448.000000	381.000000
1453.000000	383.000000
1456.000000	382.000000
1459.000000	382.000000
1462.000000	377.000000
1465.000000	376.000000
1468.000000	379.000000
1471.000000	380.000000
1475.000000	380.000000
1478.000000	378.000000
1481.000000	374.000000
1484.000000	372.000000
1487.000000	368.000000
1490.000000	364.000000
1495.000000	353.000000
1498.000000	334.000000
1501.000000	310.000000
1504.000000	281.000000
1507.000000	251.000000
1510.000000	239.000000
1513.000000	249.000000
1516.000000	273.000000
1520.000000	296.000000
1523.000000	308.000000
1526.000000	316.000000
1529.000000	329.000000
1532.000000	342.000000
1536.000000	352.000000
1540.000000	355.000000
1543.000000	353.000000
1546.000000	352.000000
1549.000000	349.000000
1552.000000	352.000000
1555.000000	354.000000
1558.000000	355.000000
1562.000000	353.000000
1565.000000	353.000000
1568.000000	354.000000
1571.000000	359.000000
1574.000000	360.000000
1577.000000	354.000000
1582.000000	348.000000
1585.000000	348.000000
1588.000000	349.000000
1591.000000	354.000000
1594.000000	358.000000
1597.000000	354.000000
1601.000000	348.000000
1604.000000	346.000000
1607.000000	346.000000
1610.000000	346.000000
1613.000000	345.000000
1616.000000	344.000000
1619.000000	341.000000
1624.000000	339.000000
1627.000000	338.000000
1630.000000	340.000000
1633.000000	342.000000
1636.000000	339.000000
1639.000000	333.000000
1643.000000	330.000000
1646.000000	331.000000
1649.000000	335.000000
1652.000000	338.000000
1655.000000	336.000000
1658.000000	330.000000
1661.000000	325.000000
1666.000000	325.000000
1669.000000	329.000000
1672.000000	332.000000
1675.000000	330.000000
1678.000000	327.000000
1681.000000	322.000000
1685.000000	321.000000
1688.000000	323.000000
1691.000000	328.000000
1694.000000	324.000000
1697.000000	320.000000
1700.000000	315.000000
1703.000000	310.000000
1708.000000	309.000000
1711.000000	314.000000
1714.000000	314.000000
1717.000000	315.000000
1720.000000	311.000000
1723.000000	306.000000
1727.000000	304.000000
1730.000000	308.000000
1733.000000	312.000000
1736.000000	310.000000
1739.000000	310.000000
1742.000000	308.000000
1745.000000	300.000000
1750.000000	300.000000
1753.000000	300.000000
1756.000000	296.000000
1759.000000	294.000000
1762.000000	294.000000
1765.000000	296.000000
1769.000000	300.000000
1772.000000	299.000000
1775.000000	294.000000
1778.000000	288.000000
1781.000000	288.000000
1784.000000	290.000000
1787.000000	293.000000
1792.000000	299.000000
1795.000000	298.000000
1798.000000	296.000000
1801.000000	294.000000
1804.000000	296.000000
1807.000000	304.000000
1811.000000	314.000000
1814.000000	311.000000
1817.000000	306.000000
1820.000000	301.000000
1823.000000	305.000000
1826.000000	311.000000
1829.000000	320.000000
1833.000000	318.000000
1837.000000	315.000000
1840.000000	313.000000
1843.000000	314.000000
1846.000000	317.000000
1849.000000	322.000000
1853.000000	323.000000
1856.000000	317.000000
1859.000000	311.000000
1862.000000	315.000000
1865.000000	319.000000
1868.000000	323.000000
1871.000000	325.000000
1875.000000	322.000000
1879.000000	316.000000
1882.000000	313.000000
1885.000000	313.000000
1888.000000	320.000000
1891.000000	322.000000
1895.000000	319.000000
1898.000000	313.000000
1901.000000	312.000000
1904.000000	311.000000
1907.000000	314.000000
1910.000000	318.000000
1913.000000	317.000000
1917.000000	315.000000
1921.000000	312.000000
1924.000000	310.000000
1927.000000	311.000000
1930.000000	317.000000
1933.000000	317.000000
1937.000000	313.000000
1940.000000	309.000000
1943.000000	310.000000
1946.000000	314.000000
1949.000000	316.000000
1952.000000	314.000000
1955.000000	311.000000
1959.000000	307.000000
1963.000000	309.000000
1966.000000	309.000000
1969.000000	314.000000
1972.000000	314.000000
1975.000000	313.000000
1979.000000	309.000000
1982.000000	306.000000
1985.000000	310.000000
1988.000000	319.000000
1991.000000	319.000000
1994.000000	315.000000
1997.000000	308.000000
2001.000000	306.000000
2004.000000	310.000000
2008.000000	317.000000
2011.000000	320.000000
2014.000000	315.000000
2017.000000	309.000000
2021.000000	306.000000
2024.000000	304.000000
2027.000000	309.000000
2030.000000	312.000000
2033.000000	313.000000
2036.000000	312.000000
2039.000000	308.000000
2043.000000	306.000000
2046.000000	310.000000
2050.000000	319.000000
2053.000000	315.000000
2056.000000	310.000000
2059.000000	304.000000
2063.000000	305.000000
2066.000000	308.000000
2069.000000	314.000000
2072.000000	313.000000
2075.000000	311.000000
2078.000000	307.000000
2081.000000	306.000000
2085.000000	307.000000
2088.000000	310.000000
2092.000000	310.000000
2095.000000	306.000000
2098.000000	300.000000
2101.000000	302.000000
2105.000000	306.000000
2108.000000	312.000000
2111.000000	313.000000
2114.000000	311.000000
2117.000000	309.000000
2120.000000	308.000000
2123.000000	306.000000
2127.000000	307.000000
2130.000000	302.000000
2134.000000	294.000000
2137.000000	292.000000
2140.000000	294.000000
2143.000000	299.000000
2147.000000	306.000000
2150.000000	306.000000
2153.000000	301.000000
2156.000000	295.000000
2159.000000	287.000000
2162.000000	288.000000
2166.000000	293.000000
2169.000000	295.000000
2172.000000	288.000000
2176.000000	283.000000
2179.000000	282.000000
2182.000000	286.000000
2185.000000	291.000000
2189.000000	300.000000
2192.000000	297.000000
2195.000000	292.000000
2198.000000	289.000000
2201.000000	291.000000
2204.000000	295.000000
2208.000000	300.000000
2211.000000	300.000000
2214.000000	301.000000
2217.000000	300.000000
2221.000000	298.000000
2224.000000	301.000000
2227.000000	308.000000
2231.000000	312.000000
2234.000000	314.000000
2237.000000	309.000000
2240.000000	307.000000
2243.000000	309.000000
2246.000000	314.000000
2250.000000	312.000000
2253.000000	312.000000
2256.000000	307.000000
2259.000000	302.000000
2263.000000	302.000000
2266.000000	310.000000
2269.000000	314.000000
2273.000000	309.000000
2276.000000	297.000000
2279.000000	289.000000
2282.000000	278.000000
2285.000000	261.000000
2288.000000	235.000000
2292.000000	195.000000
2295.000000	166.000000
2298.000000	171.000000
2301.000000	196.000000
2305.000000	226.000000
2308.000000	247.000000
2311.000000	258.000000
2315.000000	265.000000
2318.000000	270.000000
2321.000000	281.000000
2324.000000	299.000000
2327.000000	309.000000
2330.000000	310.000000
2334.000000	306.000000
2337.000000	303.000000
2340.000000	305.000000
2343.000000	312.000000
2347.000000	320.000000
2350.000000	317.000000
2353.000000	315.000000
2357.000000	310.000000
2360.000000	311.000000
2363.000000	314.000000
2366.000000	318.000000
2369.000000	317.000000
2372.000000	316.000000
2376.000000	314.000000
2379.000000	314.000000
2382.000000	314.000000
2385.000000	316.000000
2388.000000	314.000000
2392.000000	313.000000
2395.000000	311.000000
2399.000000	307.000000
2402.000000	306.000000
2405.000000	313.000000
2408.000000	317.000000
2411.000000	308.000000
2414.000000	300.000000
2418.000000	298.000000
2421.000000	299.000000
2424.000000	309.000000
2427.000000	313.000000
2430.000000	307.000000
2434.000000	302.000000
2437.000000	299.000000
2441.000000	301.000000
2444.000000	305.000000
2447.000000	310.000000
2450.000000	307.000000
2453.000000	303.000000
2456.000000	299.000000
2460.000000	298.000000
2463.000000	300.000000
2466.000000	305.000000
2469.000000	306.000000
2472.000000	300.000000
2476.000000	292.000000
2479.000000	292.000000
2483.000000	293.000000
2486.000000	297.000000
2489.000000	298.000000
2492.000000	295.000000
2495.000000	289.000000
2498.000000	288.000000
2502.000000	287.000000
2505.000000	290.000000
2508.000000	290.000000
2511.000000	293.000000
2514.000000	292.000000
2518.000000	289.000000
2521.000000	286.000000
2525.000000	288.000000
2528.000000	287.000000
2531.000000	285.000000
2534.000000	283.000000
2537.000000	281.000000
2540.000000	284.000000
2544.000000	288.000000
2547.000000	288.000000
2550.000000	284.000000
2553.000000	279.000000
2556.000000	275.000000
2560.000000	275.000000
2563.000000	280.000000
2567.000000	284.000000
2570.000000	286.000000
2573.000000	281.000000
2576.000000	276.000000
2579.000000	275.000000
2582.000000	282.000000
2586.000000	292.000000
2589.000000	296.000000
2592.000000	295.000000
2595.000000	291.000000
2598.000000	290.000000
2601.000000	296.000000
2605.000000	304.000000
2609.000000	304.000000
2612.000000	302.000000
2615.000000	298.000000
2618.000000	300.000000
2621.000000	304.000000
2624.000000	313.000000
2628.000000	317.000000
2631.000000	316.000000
2634.000000	310.000000
2637.000000	307.000000
2640.000000	306.000000
2643.000000	313.000000
2647.000000	315.000000
2651.000000	310.000000
2654.000000	306.000000
2657.000000	305.000000
2660.000000	310.000000
2663.000000	317.000000
2666.000000	319.000000
2670.000000	317.000000
2673.000000	312.000000
2676.000000	307.000000
2679.000000	304.000000
2682.000000	309.000000
2685.000000	312.000000
2690.000000	312.000000
2693.000000	311.000000
2696.000000	309.000000
2699.000000	309.000000
2702.000000	309.000000
2705.000000	309.000000
2708.000000	309.000000
2712.000000	310.000000
2715.000000	303.000000
2718.000000	302.000000
2721.000000	307.000000
2724.000000	313.000000
2727.000000	312.000000
2732.000000	308.000000
2735.000000	302.000000
2738.000000	303.000000
2741.000000	308.000000
2744.000000	314.000000
2747.000000	315.000000
2750.000000	313.000000
2754.000000	309.000000
2757.000000	311.000000
2760.000000	310.000000
2763.000000	312.000000
2766.000000	309.000000
2769.000000	307.000000
2774.000000	303.000000
2777.000000	304.000000
2780.000000	306.000000
2783.000000	313.000000
2786.000000	317.000000
2789.000000	316.000000
2792.000000	313.000000
2796.000000	308.000000
2799.000000	307.000000
2802.000000	313.000000
2805.000000	316.000000
2808.000000	312.000000
2811.000000	307.000000
2816.000000	305.000000
2819.000000	307.000000
2822.000000	311.000000
2825.000000	314.000000
2828.000000	313.000000
2831.000000	308.000000
2834.000000	306.000000
2838.000000	309.000000
2841.000000	311.000000
2844.000000	315.000000
2847.000000	312.000000
2850.000000	308.000000
2853.000000	306.000000
2857.000000	310.000000
2861.000000	320.000000
2864.000000	323.000000
2867.000000	317.000000
2870.000000	310.000000
2873.000000	305.000000
2876.000000	307.000000
2880.000000	309.000000
2883.000000	311.000000
2886.000000	309.000000
2889.000000	309.000000
2892.000000	308.000000
2895.000000	308.000000
2899.000000	314.000000
2903.000000	316.000000
2906.000000	314.000000
2909.000000	311.000000
2912.000000	306.000000
2915.000000	306.000000
2918.000000	307.000000
2922.000000	312.000000
2925.000000	314.000000
2928.000000	310.000000
2931.000000	303.000000
2934.000000	300.000000
2937.000000	302.000000
2941.000000	304.000000
2945.000000	305.000000
2948.000000	301.000000
2951.000000	294.000000
2954.000000	289.000000
2957.000000	290.000000
2960.000000	296.000000
2964.000000	301.000000
2967.000000	300.000000
2970.000000	300.000000
2973.000000	297.000000
2976.000000	295.000000
2979.000000	300.000000
2983.000000	310.000000
2987.000000	310.000000
2990.000000	304.000000
2993.000000	299.000000
2996.000000	304.000000
2999.000000	308.000000
3002.000000	316.000000
3006.000000	319.000000
3009.000000	320.000000
3012.000000	316.000000
3015.000000	317.000000
3018.000000	320.000000
3021.000000	327.000000
3025.000000	327.000000
3028.000000	325.000000
3032.000000	320.000000
3035.000000	316.000000
3038.000000	314.000000
3041.000000	319.000000
3044.000000	322.000000
3048.000000	320.000000
3051.000000	317.000000
3054.000000	316.000000
3057.000000	315.000000
3060.000000	311.000000
3063.000000	299.000000
3067.000000	276.000000
3070.000000	246.000000
3074.000000	209.000000
3077.000000	179.000000
3080.000000	178.000000
3083.000000	202.000000
3086.000000	227.000000
3089.000000	245.000000
3092.000000	256.000000
3096.000000	271.000000
3099.000000	288.000000
3102.000000	308.000000
3105.000000	317.000000
3108.000000	318.000000
3111.000000	315.000000
3116.000000	316.000000
3119.000000	320.000000
3122.000000	325.000000
3125.000000	325.000000
3128.000000	326.000000
3131.000000	324.000000
3134.000000	324.000000
3138.000000	327.000000
3141.000000	332.000000
3144.000000	334.000000
3147.000000	333.000000
3150.000000	329.000000
3153.000000	326.000000
3158.000000	325.000000
3161.000000	332.000000
3164.000000	330.000000
3167.000000	325.000000
3170.000000	319.000000
3173.000000	319.000000
3176.000000	324.000000
3180.000000	331.000000
3183.000000	333.000000
3186.000000	330.000000
3189.000000	327.000000
3192.000000	326.000000
3195.000000	324.000000
3200.000000	325.000000
3203.000000	326.000000
3206.000000	325.000000
3209.000000	323.000000
3212.000000	322.000000
3215.000000	325.000000
3218.000000	326.000000
3222.000000	327.000000
3225.000000	324.000000
3228.000000	320.000000
3231.000000	318.000000
3234.000000	321.000000
3237.000000	324.000000
3241.000000	327.000000
3245.000000	320.000000
3248.000000	312.000000
3251.000000	308.000000
3254.000000	312.000000
3257.000000	317.000000
3260.000000	321.000000
3264.000000	320.000000
3267.000000	318.000000
3270.000000	314.000000
3273.000000	314.000000
3276.000000	313.000000
3279.000000	314.000000
3283.000000	316.000000
3287.000000	316.000000
3290.000000	310.000000
3293.000000	306.000000
3296.000000	305.000000
3299.000000	311.000000
3302.000000	314.000000
3306.000000	309.000000
3309.000000	303.000000
3312.000000	299.000000
3315.000000	299.000000
3318.000000	303.000000
3321.000000	307.000000
3325.000000	305.000000
3329.000000	304.000000
3332.000000	298.000000
3335.000000	297.000000
3338.000000	301.000000
3341.000000	304.000000
3344.000000	301.000000
3348.000000	296.000000
3351.000000	291.000000
3354.000000	293.000000
3357.000000	296.000000
3360.000000	305.000000
3363.000000	306.000000
3367.000000	304.000000
3371.000000	302.000000
3374.000000	304.000000
3377.000000	308.000000
3380.000000	316.000000
3383.000000	320.000000
3386.000000	322.000000
3390.000000	318.000000
3393.000000	317.000000
3396.000000	323.000000
3399.000000	330.000000
3402.000000	325.000000
3405.000000	320.000000
3409.000000	316.000000
3412.000000	319.000000
3416.000000	323.000000
3419.000000	331.000000
3422.000000	336.000000
3425.000000	335.000000
3429.000000	331.000000
3432.000000	328.000000
3435.000000	325.000000
3438.000000	329.000000
3441.000000	336.000000
3444.000000	332.000000
3447.000000	328.000000
3451.000000	325.000000
3454.000000	326.000000
3458.000000	331.000000
3461.000000	335.000000
3464.000000	331.000000
3467.000000	325.000000
3471.000000	322.000000
3474.000000	325.000000
3477.000000	328.000000
3480.000000	331.000000
3483.000000	329.000000
3486.000000	327.000000
3489.000000	323.000000
3493.000000	324.000000
3496.000000	326.000000
3500.000000	331.000000
3503.000000	332.000000
3506.000000	331.000000
3509.000000	324.000000
3513.000000	325.000000
3516.000000	324.000000
3519.000000	329.000000
3522.000000	328.000000
3525.000000	325.000000
3528.000000	323.000000
3531.000000	324.000000
3535.000000	325.000000
3538.000000	332.000000
3542.000000	335.000000
3545.000000	332.000000
3548.000000	324.000000
3551.000000	323.000000
3555.000000	325.000000
3558.000000	328.000000
3561.000000	332.000000
3564.000000	331.000000
3567.000000	327.000000
3570.000000	324.000000
3573.000000	325.000000
3577.000000	331.000000
3580.000000	336.000000
3584.000000	332.000000
3587.000000	327.000000
3590.000000	325.000000
3593.000000	327.000000
3597.000000	330.000000
3600.000000	334.000000
3603.000000	332.000000
3606.000000	330.000000
3609.000000	325.000000
3612.000000	324.000000
3615.000000	325.000000
3619.000000	331.000000
3622.000000	335.000000
3625.000000	335.000000
3629.000000	328.000000
3632.000000	324.000000
3635.000000	325.000000
3639.000000	332.000000
3642.000000	334.000000
3645.000000	336.000000
3648.000000	330.000000
3651.000000	326.000000
3654.000000	326.000000
3657.000000	329.000000
3661.000000	328.000000
3664.000000	327.000000
3667.000000	324.000000
3671.000000	321.000000
3674.000000	324.000000
3677.000000	330.000000
3681.000000	334.000000
3684.000000	332.000000
3687.000000	325.000000
3690.000000	323.000000
3693.000000	326.000000
3696.000000	330.000000
3699.000000	331.000000
3703.000000	330.000000
3706.000000	323.000000
3709.000000	318.000000
3713.000000	317.000000
3716.000000	319.000000
3719.000000	322.000000
3723.000000	323.000000
3726.000000	321.000000
3729.000000	318.000000
3732.000000	316.000000
3735.000000	319.000000
3738.000000	324.000000
3741.000000	321.000000
3745.000000	314.000000
3748.000000	308.000000
3751.000000	308.000000
3755.000000	312.000000
3758.000000	319.000000
3761.000000	314.000000
3765.000000	311.000000
3768.000000	311.000000
3771.000000	311.000000
3774.000000	311.000000
3777.000000	315.000000
3780.000000	317.000000
3783.000000	319.000000
3787.000000	317.000000
3790.000000	318.000000
3793.000000	321.000000
3796.000000	328.000000
3800.000000	331.000000
3803.000000	332.000000
3807.000000	330.000000
3810.000000	333.000000
3813.000000	336.000000
3816.000000	341.000000
3819.000000	340.000000
3822.000000	337.000000
3825.000000	330.000000
3829.000000	329.000000
3832.000000	331.000000
3835.000000	336.000000
3838.000000	339.000000
3842.000000	336.000000
3845.000000	332.000000
3849.000000	330.000000
3852.000000	327.000000
3855.000000	324.000000
3858.000000	314.000000
3861.000000	293.000000
3864.000000	267.000000
3867.000000	234.000000
3871.000000	195.000000
3874.000000	184.000000
3877.000000	204.000000
3880.000000	236.000000
3884.000000	257.000000
3887.000000	270.000000
3890.000000	281.000000
3894.000000	293.000000
3897.000000	310.000000
3900.000000	323.000000
3903.000000	327.000000
3906.000000	324.000000
3909.000000	324.000000
3912.000000	329.000000
3916.000000	331.000000
3919.000000	333.000000
3922.000000	333.000000
3926.000000	329.000000
3929.000000	329.000000
3932.000000	330.000000
3936.000000	335.000000
3939.000000	337.000000
3942.000000	337.000000
3945.000000	336.000000
3948.000000	336.000000
3951.000000	334.000000
3954.000000	336.000000
3958.000000	337.000000
3961.000000	337.000000
3964.000000	334.000000
3968.000000	330.000000
3971.000000	329.000000
3974.000000	329.000000
3978.000000	330.000000
3981.000000	328.000000
3984.000000	326.000000
3987.000000	323.000000
3990.000000	326.000000
3993.000000	328.000000
3996.000000	330.000000
4000.000000	329.000000
4003.000000	325.000000
4006.000000	323.000000
4009.000000	321.000000
4013.000000	323.000000
4016.000000	327.000000
4020.000000	325.000000
4023.000000	320.000000
4026.000000	316.000000
4029.000000	318.000000
4032.000000	322.000000
4035.000000	326.000000
4038.000000	327.000000
4042.000000	322.000000
4045.000000	317.000000
4048.000000	317.000000
4051.000000	320.000000
4055.000000	323.000000
4058.000000	318.000000
4062.000000	316.000000
4065.000000	313.000000
4068.000000	308.000000
4071.000000	307.000000
4074.000000	310.000000
4077.000000	311.000000
4081.000000	309.000000
4084.000000	306.000000
4087.000000	304.000000
4090.000000	302.000000
4093.000000	304.000000
4097.000000	308.000000
4100.000000	308.000000
4104.000000	305.000000
4107.000000	303.000000
4110.000000	300.000000
4113.000000	296.000000
4116.000000	297.000000
4119.000000	298.000000
4123.000000	298.000000
4126.000000	297.000000
4129.000000	297.000000
4132.000000	300.000000
4135.000000	304.000000
4139.000000	301.000000
4142.000000	296.000000
4146.000000	290.000000
4149.000000	291.000000
4152.000000	298.000000
4155.000000	307.000000
4158.000000	309.000000
4161.000000	305.000000
4165.000000	298.000000
4168.000000	299.000000
4171.000000	308.000000
4174.000000	317.000000
4177.000000	321.000000
4180.000000	318.000000
4184.000000	310.000000
4188.000000	313.000000
4191.000000	318.000000
4194.000000	326.000000
4197.000000	328.000000
4200.000000	326.000000
4203.000000	324.000000
4207.000000	326.000000
4210.000000	329.000000
4213.000000	335.000000
4216.000000	338.000000
4219.000000	338.000000
4222.000000	333.000000
4226.000000	333.000000
4230.000000	332.000000
4233.000000	333.000000
4236.000000	336.000000
4239.000000	335.000000
4242.000000	333.000000
4245.000000	330.000000
4249.000000	329.000000
4252.000000	333.000000
4255.000000	338.000000
4258.000000	336.000000
4261.000000	328.000000
4264.000000	323.000000
4268.000000	325.000000
4272.000000	332.000000
4275.000000	337.000000
4278.000000	337.000000
4281.000000	328.000000
4284.000000	322.000000
4287.000000	324.000000
4291.000000	326.000000
4294.000000	332.000000
4297.000000	335.000000
4300.000000	333.000000
4303.000000	328.000000
4306.000000	328.000000
4310.000000	329.000000
4314.000000	330.000000
4317.000000	331.000000
4320.000000	329.000000
4323.000000	327.000000
4326.000000	324.000000
4329.000000	323.000000
4333.000000	328.000000
4336.000000	333.000000
4339.000000	335.000000
4342.000000	330.000000
4345.000000	327.000000
4348.000000	329.000000
4352.000000	332.000000
4356.000000	332.000000
4359.000000	331.000000
4362.000000	329.000000
4365.000000	328.000000
4368.000000	328.000000
4371.000000	332.000000
4375.000000	335.000000
4378.000000	331.000000
4381.000000	328.000000
4384.000000	325.000000
4387.000000	327.000000
4390.000000	332.000000
4393.000000	337.000000
4398.000000	333.000000
4401.000000	330.000000
4404.000000	327.000000
4407.000000	327.000000
4410.000000	332.000000
4413.000000	336.000000
4417.000000	334.000000
4420.000000	328.000000
4423.000000	322.000000
4426.000000	323.000000
4429.000000	324.000000
4432.000000	330.000000
4435.000000	333.000000
4440.000000	334.000000
4443.000000	332.000000
4446.000000	333.000000
4449.000000	335.000000
4452.000000	343.000000
4455.000000	345.000000
4459.000000	339.000000
4462.000000	333.000000
4465.000000	330.000000
4468.000000	326.000000
4471.000000	330.000000
4474.000000	334.000000
4477.000000	334.000000
4482.000000	329.000000
4485.000000	327.000000
4488.000000	330.000000
4491.000000	334.000000
4494.000000	335.000000
4497.000000	331.000000
4501.000000	327.000000
4504.000000	325.000000
4507.000000	326.000000
4510.000000	331.000000
4513.000000	337.000000
4516.000000	335.000000
4519.000000	331.000000
4524.000000	328.000000
4527.000000	327.000000
4530.000000	330.000000
4533.000000	335.000000
4536.000000	332.000000
4539.000000	326.000000
4543.000000	317.000000
4546.000000	317.000000
4549.000000	319.000000
4552.000000	328.000000
4555.000000	330.000000
4558.000000	325.000000
4561.000000	325.000000
4566.000000	327.000000
4569.000000	323.000000
4572.000000	321.000000
4575.000000	316.000000
4578.000000	310.000000
4581.000000	306.000000
4585.000000	306.000000
4588.000000	308.000000
4591.000000	315.000000
4594.000000	320.000000
4597.000000	318.000000
4600.000000	315.000000
4604.000000	315.000000
4608.000000	317.000000
4611.000000	324.000000
4614.000000	325.000000
4617.000000	324.000000
4620.000000	326.000000
4623.000000	327.000000
4627.000000	328.000000
4630.000000	332.000000
4633.000000	336.000000
4636.000000	336.000000
4639.000000	332.000000
4642.000000	329.000000
4646.000000	329.000000
4649.000000	331.000000
4653.000000	336.000000
4656.000000	339.000000
4659.000000	337.000000
4662.000000	332.000000
4665.000000	333.000000
4669.000000	337.000000
4672.000000	342.000000
4675.000000	340.000000
4678.000000	337.000000
4681.000000	331.000000
4684.000000	320.000000
4688.000000	305.000000
4691.000000	289.000000
4695.000000	263.000000
4698.000000	223.000000
4701.000000	187.000000
4704.000000	183.000000
4707.000000	203.000000
4710.000000	235.000000
4714.000000	260.000000
4717.000000	274.000000
4720.000000	285.000000
4723.000000	295.000000
4726.000000	307.000000
4729.000000	323.000000
4733.000000	335.000000
4737.000000	335.000000
4740.000000	329.000000
4743.000000	324.000000
4746.000000	326.000000
4749.000000	334.000000
4752.000000	342.000000
4756.000000	343.000000
4759.000000	341.000000
4762.000000	339.000000
4765.000000	339.000000
4768.000000	341.000000
4771.000000	345.000000
4775.000000	345.000000
4779.000000	344.000000
4782.000000	342.000000
4785.000000	342.000000
4788.000000	340.000000
4791.000000	344.000000
4794.000000	341.000000
4798.000000	336.000000
4801.000000	332.000000
4804.000000	334.000000
4807.000000	337.000000
4810.000000	340.000000
4813.000000	339.000000
4817.000000	336.000000
4820.000000	332.000000
4824.000000	332.000000
4827.000000	334.000000
4830.000000	336.000000
4833.000000	336.000000
4836.000000	335.000000
4840.000000	328.000000
4843.000000	326.000000
4846.000000	329.000000
4849.000000	334.000000
4852.000000	335.000000
4855.000000	333.000000
4859.000000	330.000000
4862.000000	329.000000
4866.000000	330.000000
4869.000000	333.000000
4872.000000	332.000000
4875.000000	327.000000
4878.000000	323.000000
4882.000000	322.000000
4885.000000	324.000000
4888.000000	326.000000
4891.000000	328.000000
4894.000000	325.000000
4897.000000	321.000000
4901.000000	317.000000
4904.000000	317.000000
4908.000000	320.000000
4911.000000	324.000000
4914.000000	321.000000
4917.000000	316.000000
4920.000000	313.000000
4924.000000	314.000000
4927.000000	315.000000
4930.000000	319.000000
4933.000000	317.000000
4936.000000	314.000000
4939.000000	303.000000
4943.000000	302.000000
4946.000000	305.000000
4950.000000	311.000000
4953.000000	311.000000
4956.000000	309.000000
4959.000000	303.000000
4962.000000	302.000000
4966.000000	302.000000
4969.000000	307.000000
4972.000000	310.000000
4975.000000	307.000000
4978.000000	303.000000
4981.000000	298.000000
4985.000000	300.000000
4988.000000	307.000000
4992.000000	313.000000
4995.000000	316.000000
4998.000000	313.000000
5001.000000	313.000000
5004.000000	316.000000
5008.000000	323.000000
5011.000000	328.000000
5014.000000	329.000000
5017.000000	326.000000
5020.000000	325.000000
5023.000000	327.000000
5027.000000	332.000000
5030.000000	336.000000
5033.000000	334.000000
5037.000000	332.000000
5040.000000	331.000000
5043.000000	334.000000
5046.000000	334.000000
5050.000000	338.000000
5053.000000	339.000000
5056.000000	337.000000
5059.000000	332.000000
5062.000000	334.000000
5065.000000	335.000000
5069.000000	338.000000
5072.000000	335.000000
5075.000000	334.000000
5079.000000	329.000000
5082.000000	329.000000
5085.000000	331.000000
5088.000000	334.000000
5092.000000	337.000000
5095.000000	340.000000
5098.000000	331.000000
5101.000000	327.000000
5104.000000	330.000000
5107.000000	333.000000
5111.000000	331.000000
5114.000000	333.000000
5117.000000	332.000000
5121.000000	329.000000
5124.000000	329.000000
5127.000000	331.000000
5130.000000	335.000000
5134.000000	335.000000
5137.000000	329.000000
5140.000000	327.000000
5143.000000	330.000000
5146.000000	334.000000
5149.000000	337.000000
5153.000000	335.000000
5156.000000	333.000000
5159.000000	330.000000
5163.000000	330.000000
5166.000000	333.000000
5169.000000	338.000000
5172.000000	336.000000
5176.000000	333.000000
5179.000000	326.000000
5182.000000	326.000000
5185.000000	331.000000
5188.000000	340.000000
5191.000000	343.000000
5195.000000	336.000000
5198.000000	329.000000
5201.000000	329.000000
5204.000000	330.000000
5208.000000	334.000000
5211.000000	335.000000
5214.000000	336.000000
5218.000000	334.000000
5221.000000	335.000000
5224.000000	336.000000
5227.000000	337.000000
5230.000000	337.000000
5233.000000	337.000000
5237.000000	333.000000
5240.000000	330.000000
5243.000000	332.000000
5246.000000	337.000000
5250.000000	338.000000
5253.000000	337.000000
5257.000000	333.000000
5260.000000	332.000000
5263.000000	333.000000
5266.000000	338.000000
5269.000000	339.000000
5272.000000	338.000000
5275.000000	335.000000
5279.000000	330.000000
5282.000000	330.000000
5285.000000	335.000000
5288.000000	342.000000
5292.000000	340.000000
5295.000000	336.000000
5299.000000	334.000000
5302.000000	332.000000
5305.000000	332.000000
5308.000000	335.000000
5311.000000	333.000000
5314.000000	331.000000
5317.000000	330.000000
5321.000000	332.000000
5324.000000	334.000000
5327.000000	336.000000
5330.000000	333.000000
5334.000000	331.000000
5337.000000	329.000000
5341.000000	329.000000
5344.000000	331.000000
5347.000000	337.000000
5350.000000	337.000000
5353.000000	332.000000
5356.000000	328.000000
5359.000000	328.000000
5363.000000	329.000000
5366.000000	335.000000
5369.000000	339.000000
5372.000000	337.000000
5376.000000	332.000000
5379.000000	327.000000
5383.000000	326.000000
5386.000000	330.000000
5389.000000	336.000000
5392.000000	336.000000
5395.000000	331.000000
5398.000000	330.000000
5401.000000	332.000000
5405.000000	334.000000
5408.000000	326.000000
5411.000000	319.000000
5414.000000	314.000000
5417.000000	313.000000
5421.000000	313.000000
5425.000000	317.000000
5428.000000	324.000000
5431.000000	324.000000
5434.000000	321.000000
5437.000000	317.000000
5440.000000	312.000000
5443.000000	310.000000
5447.000000	312.000000
5450.000000	312.000000
5453.000000	312.000000
5456.000000	311.000000
5459.000000	311.000000
5463.000000	313.000000
5467.000000	321.000000
5470.000000	326.000000
5473.000000	325.000000
5476.000000	319.000000
5479.000000	320.000000
5482.000000	322.000000
5485.000000	327.000000
5489.000000	329.000000
5492.000000	328.000000
5495.000000	326.000000
5498.000000	328.000000
5501.000000	332.000000
5505.000000	343.000000
5509.000000	348.000000
5512.000000	340.000000
5515.000000	328.000000
5518.000000	325.000000
5521.000000	327.000000
5524.000000	333.000000
5527.000000	336.000000
5531.000000	335.000000
5534.000000	329.000000
5537.000000	328.000000
5540.000000	328.000000
5543.000000	331.000000
5547.000000	332.000000
5551.000000	316.000000
5554.000000	295.000000
5557.000000	267.000000
5560.000000	237.000000
5563.000000	201.000000
5566.000000	185.000000
5569.000000	195.000000
5573.000000	221.000000
5576.000000	245.000000
5579.000000	269.000000
5582.000000	289.000000
5585.000000	304.000000
5588.000000	311.000000
5593.000000	319.000000
5596.000000	320.000000
5599.000000	324.000000
5602.000000	326.000000
5605.000000	332.000000
5608.000000	335.000000
5611.000000	335.000000
5615.000000	332.000000
5618.000000	328.000000
5621.000000	329.000000
5624.000000	336.000000
5627.000000	341.000000
5630.000000	342.000000
5635.000000	337.000000
5638.000000	334.000000
5641.000000	336.000000
5644.000000	336.000000
5647.000000	336.000000
5650.000000	332.000000
5653.000000	328.000000
5657.000000	328.000000
5660.000000	330.000000
5663.000000	335.000000
5666.000000	339.000000
5669.000000	336.000000
5672.000000	333.000000
5677.000000	330.000000
5680.000000	328.000000
5683.000000	329.000000
5686.000000	335.000000
5689.000000	334.000000
5692.000000	330.000000
5695.000000	326.000000
5699.000000	327.000000
5702.000000	329.000000
5705.000000	333.000000
5708.000000	331.000000
5711.000000	328.000000
5714.000000	324.000000
5719.000000	323.000000
5722.000000	326.000000
5725.000000	331.000000
5728.000000	328.000000
5731.000000	326.000000
5734.000000	320.000000
5737.000000	318.000000
5741.000000	318.000000
5744.000000	321.000000
5747.000000	322.000000
5750.000000	322.000000
5753.000000	315.000000
5756.000000	312.000000
5761.000000	313.000000
5764.000000	317.000000
5767.000000	321.000000
5770.000000	317.000000
5773.000000	310.000000
5776.000000	306.000000
5779.000000	306.000000
5783.000000	309.000000
5786.000000	314.000000
5789.000000	313.000000
5792.000000	305.000000
5795.000000	300.000000
5798.000000	299.000000
5803.000000	301.000000
5806.000000	306.000000
5809.000000	307.000000
5812.000000	304.000000
5815.000000	302.000000
5818.000000	300.000000
5822.000000	301.000000
5825.000000	306.000000
5828.000000	305.000000
5831.000000	303.000000
5834.000000	301.000000
5837.000000	301.000000
5840.000000	304.000000
5844.000000	313.000000
5848.000000	315.000000
5851.000000	311.000000
5854.000000	303.000000
5857.000000	307.000000
5860.000000	312.000000
5864.000000	317.000000
5867.000000	320.000000
5870.000000	320.000000
5873.000000	317.000000
5876.000000	320.000000
5879.000000	324.000000
5882.000000	334.000000
5886.000000	337.000000
5890.000000	330.000000
5893.000000	324.000000
5896.000000	325.000000
5899.000000	329.000000
5902.000000	337.000000
5906.000000	341.000000
5909.000000	340.000000
5912.000000	338.000000
5915.000000	338.000000
5918.000000	340.000000
5921.000000	340.000000
5924.000000	342.000000
5928.000000	340.000000
5932.000000	337.000000
5935.000000	337.000000
5938.000000	336.000000
5941.000000	339.000000
5944.000000	348.000000
5948.000000	350.000000
5951.000000	345.000000
5954.000000	336.000000
5957.000000	333.000000
5960.000000	334.000000
5963.000000	337.000000
5966.000000	336.000000
5970.000000	335.000000
5974.000000	334.000000
5977.000000	336.000000
5980.000000	339.000000
5983.000000	344.000000
5986.000000	343.000000
5990.000000	339.000000
5993.000000	334.000000
5996.000000	332.000000
5999.000000	333.000000
6002.000000	340.000000
6005.000000	344.000000
6008.000000	342.000000
6012.000000	333.000000
6016.000000	328.000000
6019.000000	331.000000
6022.000000	338.000000
6025.000000	345.000000
6028.000000	343.000000
6032.000000	334.000000
6035.000000	332.000000
6038.000000	333.000000
6041.000000	336.000000
6044.000000	341.000000
6047.000000	343.000000
6050.000000	337.000000
6054.000000	331.000000
6057.000000	330.000000
6061.000000	335.000000
6064.000000	341.000000
6067.000000	339.000000
6070.000000	336.000000
6074.000000	334.000000
6077.000000	332.000000
6080.000000	337.000000
6083.000000	343.000000
6086.000000	340.000000
6089.000000	337.000000
6092.000000	334.000000
6096.000000	337.000000
6099.000000	340.000000
6103.000000	343.000000
6106.000000	339.000000
6109.000000	337.000000
6112.000000	333.000000
6116.000000	331.000000
6119.000000	334.000000
6122.000000	340.000000
6125.000000	337.000000
6128.000000	336.000000
6131.000000	333.000000
6134.000000	331.000000
6138.000000	331.000000
6141.000000	335.000000
6145.000000	337.000000
6148.000000	336.000000
6151.000000	333.000000
6154.000000	332.000000
6158.000000	330.000000
6161.000000	337.000000
6164.000000	336.000000
6167.000000	331.000000
6170.000000	327.000000
6173.000000	328.000000
6176.000000	329.000000
6180.000000	333.000000
6183.000000	337.000000
6187.000000	338.000000
6190.000000	335.000000
6193.000000	333.000000
6196.000000	332.000000
6200.000000	333.000000
6203.000000	337.000000
6206.000000	334.000000
6209.000000	329.000000
6212.000000	324.000000
6215.000000	322.000000
6218.000000	326.000000
6222.000000	331.000000
6225.000000	329.000000
6228.000000	328.000000
6232.000000	327.000000
6235.000000	328.000000
6238.000000	330.000000
6242.000000	333.000000
6245.000000	333.000000
6248.000000	332.000000
6251.000000	327.000000
6254.000000	328.000000
6257.000000	330.000000
6260.000000	331.000000
6264.000000	330.000000
6267.000000	328.000000
6270.000000	323.000000
6274.000000	325.000000
6277.000000	323.000000
6280.000000	325.000000
6284.000000	325.000000
6287.000000	322.000000
6290.000000	322.000000
6293.000000	323.000000
6296.000000	322.000000
6299.000000	322.000000
6302.000000	322.000000
6306.000000	321.000000
6309.000000	317.000000
6312.000000	314.000000
6316.000000	313.000000
6319.000000	313.000000
6322.000000	315.000000
6326.000000	313.000000
6329.000000	310.000000
6332.000000	309.000000
6335.000000	310.000000
6338.000000	313.000000
6341.000000	318.000000
6345.000000	317.000000
6348.000000	313.000000
6351.000000	311.000000
6354.000000	312.000000
6358.000000	316.000000
6361.000000	324.000000
6364.000000	329.000000
6368.000000	327.000000
6371.000000	321.000000
6374.000000	323.000000
6377.000000	327.000000
6380.000000	334.000000
6383.000000	336.000000
6387.000000	333.000000
6390.000000	326.000000
6393.000000	326.000000
6396.000000	330.000000
6400.000000	336.000000
6403.000000	333.000000
6406.000000	330.000000
6410.000000	326.000000
6413.000000	325.000000
6416.000000	327.000000
6419.000000	332.000000
6422.000000	334.000000
6425.000000	326.000000
6429.000000	312.000000
6432.000000	297.000000
6435.000000	277.000000
6438.000000	253.000000
6441.000000	223.000000
6445.000000	196.000000
6448.000000	195.000000
6452.000000	216.000000
6455.000000	246.000000
6458.000000	273.000000
6461.000000	291.000000
6464.000000	299.000000
6467.000000	307.000000
6471.000000	314.000000
6474.000000	322.000000
6477.000000	330.000000
6480.000000	332.000000
6483.000000	328.000000
6487.000000	329.000000
6490.000000	326.000000
6494.000000	325.000000
6497.000000	325.000000
6500.000000	331.000000
6503.000000	335.000000
6506.000000	336.000000
6509.000000	336.000000
6513.000000	338.000000
6516.000000	337.000000
6519.000000	339.000000
6522.000000	338.000000
6525.000000	336.000000
6529.000000	332.000000
6532.000000	329.000000
6536.000000	329.000000
6539.000000	334.000000
6542.000000	336.000000
6545.000000	332.000000
6548.000000	328.000000
6551.000000	328.000000
6555.000000	330.000000
6558.000000	334.000000
6561.000000	339.000000
6564.000000	336.000000
6567.000000	330.000000
6571.000000	325.000000
6574.000000	324.000000
6578.000000	328.000000
6581.000000	334.000000
6584.000000	335.000000
6587.000000	327.000000
6590.000000	320.000000
6593.000000	319.000000
6597.000000	323.000000
6600.000000	330.000000
6603.000000	327.000000
6606.000000	324.000000
6609.000000	318.000000
6612.000000	316.000000
6616.000000	319.000000
6620.000000	324.000000
6623.000000	322.000000
6626.000000	318.000000
6629.000000	315.000000
6632.000000	314.000000
6635.000000	316.000000
6639.000000	318.000000
6642.000000	314.000000
6645.000000	312.000000
6648.000000	309.000000
6651.000000	309.000000
6654.000000	312.000000
6658.000000	317.000000
6662.000000	317.000000
6665.000000	313.000000
6668.000000	304.000000
6671.000000	300.000000
6674.000000	301.000000
6677.000000	306.000000
6681.000000	308.000000
6684.000000	305.000000
6687.000000	301.000000
6690.000000	299.000000
6693.000000	298.000000
6696.000000	299.000000
6700.000000	303.000000
6704.000000	305.000000
6707.000000	300.000000
6710.000000	295.000000
6713.000000	293.000000
6716.000000	296.000000
6719.000000	301.000000
6723.000000	303.000000
6726.000000	302.000000
6729.000000	299.000000
6732.000000	300.000000
6735.000000	306.000000
6738.000000	312.000000
6742.000000	312.000000
6746.000000	310.000000
6749.000000	308.000000
6752.000000	312.000000
6755.000000	317.000000
6758.000000	325.000000
6761.000000	326.000000
6765.000000	327.000000
6768.000000	326.000000
6771.000000	326.000000
6774.000000	328.000000
6777.000000	334.000000
6780.000000	335.000000
6784.000000	332.000000
6788.000000	330.000000
6791.000000	328.000000
6794.000000	330.000000
6797.000000	334.000000
6800.000000	337.000000
6803.000000	337.000000
6807.000000	329.000000
6810.000000	327.000000
6813.000000	331.000000
6816.000000	336.000000
6819.000000	336.000000
6822.000000	334.000000
6825.000000	333.000000
6830.000000	332.000000
6833.000000	334.000000
6836.000000	336.000000
6839.000000	336.000000
6842.000000	333.000000
6845.000000	331.000000
6849.000000	331.000000
6852.000000	332.000000
6855.000000	333.000000
6858.000000	336.000000
6861.000000	336.000000
6864.000000	332.000000
6867.000000	325.000000
6872.000000	326.000000
6875.000000	331.000000
6878.000000	333.000000
6881.000000	330.000000
6884.000000	328.000000
6887.000000	328.000000
6891.000000	328.000000
6894.000000	329.000000
6897.000000	332.000000
6900.000000	332.000000
6903.000000	333.000000
6906.000000	330.000000
6910.000000	328.000000
6914.000000	326.000000
6917.000000	327.000000
6920.000000	330.000000
6923.000000	331.000000
6926.000000	329.000000
6929.000000	327.000000
6933.000000	328.000000
6936.000000	333.000000
6939.000000	335.000000
6942.000000	332.000000
6945.000000	328.000000
6948.000000	326.000000
6952.000000	326.000000
6956.000000	331.000000
6959.000000	335.000000
6962.000000	335.000000
6965.000000	331.000000
6968.000000	328.000000
6971.000000	332.000000
6975.000000	338.000000
6978.000000	340.000000
6981.000000	334.000000
6984.000000	327.000000
6987.000000	323.000000
6990.000000	326.000000
6994.000000	333.000000
6998.000000	336.000000
7001.000000	332.000000
7004.000000	330.000000
7007.000000	326.000000
7010.000000	327.000000
7013.000000	331.000000
7017.000000	335.000000
7020.000000	334.000000
7023.000000	333.000000
7026.000000	331.000000
7029.000000	332.000000
7032.000000	330.000000
7036.000000	333.000000
7040.000000	333.000000
7043.000000	334.000000
7046.000000	331.000000
7049.000000	328.000000
7052.000000	327.000000
7055.000000	331.000000
7059.000000	332.000000
7062.000000	331.000000
7065.000000	326.000000
7068.000000	325.000000
7071.000000	326.000000
7074.000000	332.000000
7078.000000	334.000000
7081.000000	334.000000
7085.000000	331.000000
7088.000000	327.000000
7091.000000	326.000000
7094.000000	332.000000
7097.000000	337.000000
7101.000000	333.000000
7104.000000	327.000000
7107.000000	327.000000
7110.000000	330.000000
7113.000000	330.000000
7116.000000	332.000000
7120.000000	327.000000
7123.000000	323.000000
7127.000000	322.000000
7130.000000	327.000000
7133.000000	331.000000
7136.000000	336.000000
7139.000000	332.000000
7143.000000	325.000000
7146.000000	321.000000
7149.000000	325.000000
7152.000000	332.000000
7155.000000	339.000000
7158.000000	337.000000
7162.000000	331.000000
7165.000000	323.000000
7169.000000	322.000000
7172.000000	325.000000
7175.000000	333.000000
7178.000000	332.000000
7181.000000	325.000000
7185.000000	318.000000
7188.000000	319.000000
7191.000000	319.000000
7194.000000	322.000000
7197.000000	323.000000
7200.000000	323.000000
7204.000000	319.000000
7207.000000	317.000000
7211.000000	319.000000
7214.000000	322.000000
7217.000000	316.000000
7220.000000	311.000000
7223.000000	308.000000
7227.000000	303.000000
7230.000000	304.000000
7233.000000	312.000000
7236.000000	319.000000
7239.000000	314.000000
7242.000000	311.000000
7246.000000	310.000000
7249.000000	313.000000
7252.000000	318.000000
7256.000000	323.000000
7259.000000	322.000000
7262.000000	320.000000
7265.000000	320.000000
7269.000000	326.000000
7272.000000	330.000000
7275.000000	338.000000
7278.000000	341.000000
7281.000000	337.000000
7284.000000	329.000000
7288.000000	327.000000
7291.000000	328.000000
7294.000000	336.000000
7298.000000	336.000000
7301.000000	333.000000
7304.000000	328.000000
7307.000000	331.000000
7311.000000	334.000000
7314.000000	337.000000
7317.000000	337.000000
7320.000000	334.000000
7323.000000	325.000000
7326.000000	313.000000
7330.000000	295.000000
7333.000000	276.000000
7336.000000	249.000000
7340.000000	216.000000
7343.000000	196.000000
7346.000000	208.000000
7349.000000	237.000000
7353.000000	266.000000
7356.000000	282.000000
7359.000000	289.000000
7362.000000	295.000000
7365.000000	308.000000
7368.000000	319.000000
7372.000000	327.000000
7375.000000	330.000000
7378.000000	329.000000
7382.000000	326.000000
7385.000000	324.000000
7388.000000	329.000000
7391.000000	337.000000
7395.000000	343.000000
7398.000000	337.000000
7401.000000	334.000000
7404.000000	330.000000
7407.000000	331.000000
7410.000000	332.000000
7414.000000	336.000000
7417.000000	336.000000
7420.000000	335.000000
7424.000000	334.000000
7427.000000	337.000000
7430.000000	338.000000
7433.000000	341.000000
7437.000000	339.000000
7440.000000	335.000000
7443.000000	334.000000
7446.000000	332.000000
7449.000000	332.000000
7452.000000	336.000000
7456.000000	336.000000
7459.000000	332.000000
7462.000000	327.000000
7465.000000	324.000000
7469.000000	326.000000
7472.000000	329.000000
7476.000000	330.000000
7479.000000	330.000000
7482.000000	327.000000
7485.000000	326.000000
7488.000000	326.000000
7491.000000	327.000000
7494.000000	329.000000
7498.000000	325.000000
7501.000000	322.000000
7504.000000	318.000000
7507.000000	318.000000
7511.000000	321.000000
7514.000000	325.000000
7518.000000	324.000000
7521.000000	320.000000
7524.000000	318.000000
7527.000000	318.000000
7530.000000	321.000000
7533.000000	322.000000
7536.000000	318.000000
7540.000000	315.000000
7543.000000	312.000000
7546.000000	312.000000
7549.000000	311.000000
7553.000000	318.000000
7556.000000	313.000000
7560.000000	309.000000
7563.000000	305.000000
7566.000000	303.000000
7569.000000	302.000000
7572.000000	306.000000
7575.000000	310.000000
7578.000000	309.000000
7582.000000	304.000000
7585.000000	301.000000
7588.000000	299.000000
7591.000000	303.000000
7595.000000	305.000000
7598.000000	305.000000
7602.000000	301.000000
7605.000000	298.000000
7608.000000	298.000000
7611.000000	300.000000
7614.000000	302.000000
7617.000000	301.000000
7620.000000	298.000000
7624.000000	297.000000
7627.000000	298.000000
7630.000000	303.000000
7633.000000	310.000000
7636.000000	310.000000
7640.000000	312.000000
7644.000000	308.000000
7647.000000	311.000000
7650.000000	317.000000
7653.000000	322.000000
7656.000000	320.000000
7659.000000	317.000000
7662.000000	317.000000
7666.000000	321.000000
7669.000000	324.000000
7672.000000	330.000000
7675.000000	331.000000
7678.000000	331.000000
7682.000000	327.000000
7686.000000	328.000000
7689.000000	328.000000
7692.000000	334.000000
7695.000000	333.000000
7698.000000	330.000000
7701.000000	327.000000
7704.000000	329.000000
7708.000000	331.000000
7711.000000	334.000000
7714.000000	335.000000
7717.000000	334.000000
7720.000000	330.000000
7724.000000	331.000000
7728.000000	331.000000
7731.000000	333.000000
7734.000000	332.000000
7737.000000	330.000000
7740.000000	326.000000
7743.000000	323.000000
7746.000000	325.000000
7750.000000	332.000000
7753.000000	336.000000
7756.000000	335.000000
7759.000000	330.000000
7762.000000	326.000000
7766.000000	326.000000
7770.000000	328.000000
7773.000000	329.000000
7776.000000	328.000000
7779.000000	327.000000
7782.000000	326.000000
7785.000000	328.000000
7788.000000	327.000000
7792.000000	327.000000
7795.000000	326.000000
7798.000000	328.000000
7801.000000	329.000000
7804.000000	328.000000
7808.000000	328.000000
7812.000000	331.000000
7815.000000	331.000000
7818.000000	328.000000
7821.000000	323.000000
7824.000000	326.000000
7827.000000	330.000000
7830.000000	335.000000
7834.000000	334.000000
7837.000000	331.000000
7840.000000	328.000000
7843.000000	329.000000
7846.000000	329.000000
7849.000000	330.000000
7854.000000	332.000000
7857.000000	331.000000
7860.000000	329.000000
7863.000000	329.000000
7866.000000	330.000000
7869.000000	333.000000
7872.000000	334.000000
7876.000000	334.000000
7879.000000	330.000000
7882.000000	326.000000
7885.000000	325.000000
7888.000000	330.000000
7891.000000	334.000000
7896.000000	332.000000
7899.000000	330.000000
7902.000000	330.000000
7905.000000	332.000000
7908.000000	336.000000
7911.000000	339.000000
7914.000000	336.000000
7918.000000	334.000000
7921.000000	329.000000
7924.000000	327.000000
7927.000000	328.000000
7930.000000	333.000000
7933.000000	334.000000
7938.000000	334.000000
7941.000000	330.000000
7944.000000	330.000000
7947.000000	329.000000
7950.000000	331.000000
7953.000000	333.000000
7956.000000	333.000000
7960.000000	329.000000
7963.000000	324.000000
7966.000000	326.000000
7969.000000	333.000000
7972.000000	331.000000
7975.000000	328.000000
7980.000000	324.000000
7983.000000	323.000000
7986.000000	324.000000
7989.000000	331.000000
7992.000000	335.000000
7995.000000	328.000000
7999.000000	320.000000
8002.000000	317.000000
8005.000000	321.000000
8008.000000	329.000000
8011.000000	334.000000
8014.000000	335.000000
8017.000000	332.000000
8022.000000	330.000000
8025.000000	331.000000
8028.000000	333.000000
8031.000000	337.000000
8034.000000	332.000000
8037.000000	326.000000
8041.000000	322.000000
8044.000000	325.000000
8047.000000	328.000000
8050.000000	331.000000
8053.000000	328.000000
8056.000000	325.000000
8059.000000	323.000000
8064.000000	325.000000
8067.000000	330.000000
8070.000000	328.000000
8073.000000	321.000000
8076.000000	318.000000
8079.000000	312.000000
8083.000000	312.000000
8086.000000	315.000000
8089.000000	320.000000
8092.000000	322.000000
8095.000000	320.000000
8098.000000	316.000000
8101.000000	316.000000
8105.000000	313.000000
8109.000000	312.000000
8112.000000	310.000000
8115.000000	310.000000
8118.000000	307.000000
8121.000000	307.000000
8125.000000	307.000000
8128.000000	313.000000
8131.000000	315.000000
8134.000000	316.000000
8137.000000	315.000000
8140.000000	313.000000
8143.000000	313.000000
8147.000000	319.000000
8151.000000	325.000000
8154.000000	326.000000
8157.000000	325.000000
8160.000000	323.000000
8163.000000	328.000000
8167.000000	335.000000
8170.000000	340.000000
8173.000000	336.000000
8176.000000	334.000000
8179.000000	333.000000
8182.000000	325.000000
8185.000000	326.000000
8189.000000	334.000000
8193.000000	339.000000
8196.000000	341.000000
8199.000000	334.000000
8202.000000	334.000000
8205.000000	336.000000
8209.000000	338.000000
8212.000000	332.000000
8215.000000	317.000000
8218.000000	296.000000
8221.000000	275.000000
8224.000000	249.000000
8227.000000	222.000000
8231.000000	203.000000
8235.000000	208.000000
8238.000000	225.000000
8241.000000	248.000000
8244.000000	263.000000
8247.000000	276.000000
8251.000000	286.000000
8254.000000	293.000000
8257.000000	303.000000
8260.000000	314.000000
8263.000000	322.000000
8266.000000	331.000000
8269.000000	337.000000
8273.000000	335.000000
8276.000000	328.000000
8280.000000	329.000000
8283.000000	334.000000
8286.000000	343.000000
8289.000000	346.000000
8293.000000	343.000000
8296.000000	339.000000
8299.000000	335.000000
8302.000000	336.000000
8305.000000	338.000000
8308.000000	340.000000
8311.000000	338.000000
8315.000000	336.000000
8318.000000	333.000000
8322.000000	333.000000
8325.000000	332.000000
8328.000000	337.000000
8331.000000	337.000000
8335.000000	334.000000
8338.000000	331.000000
8341.000000	333.000000
8344.000000	334.000000
8347.000000	336.000000
8350.000000	334.000000
8353.000000	332.000000
8357.000000	328.000000
8360.000000	328.000000
8364.000000	331.000000
8367.000000	335.000000
8370.000000	336.000000
8373.000000	336.000000
8377.000000	332.000000
8380.000000	328.000000
8383.000000	324.000000
8386.000000	326.000000
8389.000000	330.000000
8392.000000	329.000000
8395.000000	325.000000
8399.000000	319.000000
8402.000000	319.000000
8406.000000	323.000000
8409.000000	327.000000
8412.000000	325.000000
8415.000000	322.000000
8419.000000	320.000000
8422.000000	321.000000
8425.000000	324.000000
8428.000000	327.000000
8431.000000	323.000000
8434.000000	318.000000
8437.000000	316.000000
8441.000000	317.000000
8444.000000	315.000000
8448.000000	316.000000
8451.000000	313.000000
8454.000000	312.000000
8457.000000	310.000000
8461.000000	309.000000
8464.000000	308.000000
8467.000000	309.000000
8470.000000	309.000000
8473.000000	308.000000
8476.000000	306.000000
8479.000000	307.000000
8483.000000	308.000000
8486.000000	309.000000
8489.000000	306.000000
8493.000000	304.000000
8496.000000	301.000000
8499.000000	300.000000
8503.000000	300.000000
8506.000000	307.000000
8509.000000	312.000000
8512.000000	307.000000
8515.000000	301.000000
8518.000000	303.000000
8521.000000	307.000000
8525.000000	311.000000
8528.000000	314.000000
8531.000000	316.000000
8535.000000	316.000000
8538.000000	315.000000
8541.000000	313.000000
8545.000000	316.000000
8548.000000	318.000000
8551.000000	320.000000
8554.000000	323.000000
8557.000000	323.000000
8560.000000	323.000000
8564.000000	327.000000
8567.000000	333.000000
8570.000000	334.000000
8573.000000	334.000000
8577.000000	334.000000
8580.000000	332.000000
8583.000000	331.000000
8587.000000	330.000000
8590.000000	328.000000
8593.000000	329.000000
8596.000000	326.000000
8599.000000	328.000000
8602.000000	330.000000
8606.000000	335.000000
8609.000000	335.000000
8612.000000	332.000000
8615.000000	329.000000
8619.000000	329.000000
8622.000000	328.000000
8625.000000	332.000000
8629.000000	332.000000
8632.000000	330.000000
8635.000000	327.000000
8638.000000	327.000000
8641.000000	327.000000
8644.000000	332.000000
8648.000000	334.000000
8651.000000	335.000000
8654.000000	334.000000
8657.000000	332.000000
8660.000000	329.000000
8664.000000	332.000000
8667.000000	334.000000
8671.000000	332.000000
8674.000000	329.000000
8677.000000	328.000000
8680.000000	327.000000
8683.000000	332.000000
8686.000000	339.000000
8690.000000	339.000000
8693.000000	332.000000
8696.000000	329.000000
8699.000000	330.000000
8702.000000	327.000000
8706.000000	330.000000
8709.000000	329.000000
8713.000000	327.000000
8716.000000	325.000000
8719.000000	328.000000
8722.000000	332.000000
8725.000000	335.000000
8728.000000	333.000000
8732.000000	331.000000
8735.000000	328.000000
8738.000000	331.000000
8741.000000	332.000000
8744.000000	336.000000
8748.000000	337.000000
8751.000000	334.000000
8755.000000	329.000000
8758.000000	330.000000
8761.000000	330.000000
8764.000000	333.000000
8767.000000	334.000000
8770.000000	333.000000
8774.000000	330.000000
8777.000000	327.000000
8780.000000	329.000000
8783.000000	335.000000
8786.000000	337.000000
8790.000000	337.000000
8793.000000	334.000000
8797.000000	332.000000
8800.000000	330.000000
8803.000000	332.000000
8806.000000	338.000000
8809.000000	337.000000
8812.000000	331.000000
8816.000000	328.000000
8819.000000	326.000000
8822.000000	328.000000
8825.000000	333.000000
8828.000000	332.000000
8832.000000	333.000000
8835.000000	328.000000
8839.000000	327.000000
8842.000000	329.000000
8845.000000	335.000000
8848.000000	336.000000
8851.000000	334.000000
8854.000000	329.000000
8858.000000	330.000000
8861.000000	333.000000
8864.000000	334.000000
8867.000000	330.000000
8870.000000	329.000000
8873.000000	327.000000
8877.000000	327.000000
8881.000000	328.000000
8884.000000	331.000000
8887.000000	328.000000
8890.000000	326.000000
8893.000000	326.000000
8896.000000	324.000000
8900.000000	324.000000
8903.000000	328.000000
8906.000000	332.000000
8909.000000	331.000000
8912.000000	329.000000
8915.000000	327.000000
8919.000000	324.000000
8923.000000	327.000000
8926.000000	331.000000
8929.000000	328.000000
8932.000000	322.000000
8935.000000	318.000000
8938.000000	319.000000
8942.000000	322.000000
8945.000000	327.000000
8948.000000	325.000000
8951.000000	320.000000
8954.000000	316.000000
8957.000000	312.000000
8961.000000	309.000000
8965.000000	312.000000
8968.000000	314.000000
8971.000000	313.000000
8974.000000	310.000000
8977.000000	309.000000
8980.000000	312.000000
8984.000000	318.000000
8987.000000	319.000000
8990.000000	318.000000
8993.000000	316.000000
8996.000000	318.000000
8999.000000	318.000000
9003.000000	326.000000
9007.000000	329.000000
9010.000000	327.000000
9013.000000	329.000000
9016.000000	335.000000
9019.000000	337.000000
9022.000000	339.000000
9026.000000	336.000000
9029.000000	332.000000
9032.000000	328.000000
9035.000000	328.000000
9038.000000	331.000000
9041.000000	338.000000
9044.000000	341.000000
9049.000000	338.000000
9052.000000	334.000000
9055.000000	333.000000
9058.000000	333.000000
9061.000000	332.000000
9064.000000	327.000000
9068.000000	312.000000
9071.000000	290.000000
9074.000000	260.000000
9077.000000	228.000000
9080.000000	198.000000
9083.000000	195.000000
9086.000000	214.000000
9091.000000	239.000000
9094.000000	260.000000
9097.000000	274.000000
9100.000000	284.000000
9103.000000	300.000000
9106.000000	308.000000
9110.000000	319.000000
9113.000000	324.000000
9116.000000	329.000000
9119.000000	331.000000
9122.000000	334.000000
9125.000000	334.000000
9129.000000	334.000000
9133.000000	334.000000
9136.000000	335.000000
9139.000000	336.000000
9142.000000	340.000000
9145.000000	342.000000
9148.000000	341.000000
9152.000000	337.000000
9155.000000	335.000000
9158.000000	335.000000
9161.000000	341.000000
9164.000000	341.000000
9167.000000	337.000000
9171.000000	332.000000
9175.000000	333.000000
9178.000000	336.000000
9181.000000	340.000000
9184.000000	343.000000
9187.000000	340.000000
9190.000000	334.000000
9194.000000	330.000000
9197.000000	331.000000
9200.000000	337.000000
9203.000000	341.000000
9206.000000	337.000000
9209.000000	331.000000
9213.000000	326.000000
9217.000000	327.000000
9220.000000	329.000000
9223.000000	338.000000
9226.000000	336.000000
9229.000000	329.000000
9232.000000	326.000000
9236.000000	326.000000
9239.000000	327.000000
9242.000000	329.000000
9245.000000	329.000000
9248.000000	327.000000
9251.000000	325.000000
9255.000000	324.000000
9259.000000	321.000000
9262.000000	322.000000
9265.000000	321.000000
9268.000000	319.000000
9271.000000	315.000000
9274.000000	318.000000
9278.000000	317.000000
9281.000000	321.000000
9284.000000	322.000000
9287.000000	320.000000
9290.000000	315.000000
9293.000000	315.000000
9297.000000	316.000000
9300.000000	318.000000
9304.000000	319.000000
9307.000000	314.000000
9310.000000	309.000000
9313.000000	308.000000
9316.000000	309.000000
9320.000000	311.000000
9323.000000	313.000000
9326.000000	310.000000
9329.000000	304.000000
9332.000000	303.000000
9335.000000	308.000000
9339.000000	310.000000
9342.000000	306.000000
9346.000000	302.000000
9349.000000	299.000000
9352.000000	301.000000
9355.000000	301.000000
9358.000000	304.000000
9362.000000	310.000000
9365.000000	311.000000
9368.000000	307.000000
9371.000000	305.000000
9374.000000	307.000000
9377.000000	310.000000
9381.000000	317.000000
9384.000000	316.000000
9388.000000	315.000000
9391.000000	311.000000
9394.000000	313.000000
9397.000000	317.000000
9400.000000	325.000000
9404.000000	327.000000
9407.000000	327.000000
9410.000000	323.000000
9413.000000	323.000000
9416.000000	325.000000
9419.000000	329.000000
9423.000000	332.000000
9426.000000	332.000000
9430.000000	329.000000
9433.000000	329.000000
9436.000000	333.000000
9439.000000	337.000000
9442.000000	337.000000
9446.000000	332.000000
9449.000000	326.000000
9452.000000	324.000000
9455.000000	324.000000
9458.000000	328.000000
9461.000000	333.000000
9465.000000	334.000000
9468.000000	334.000000
9472.000000	333.000000
9475.000000	329.000000
9478.000000	329.000000
9481.000000	331.000000
9484.000000	329.000000
9488.000000	324.000000
9491.000000	320.000000
9494.000000	323.000000
9497.000000	330.000000
9500.000000	336.000000
9503.000000	334.000000
9507.000000	330.000000
9510.000000	326.000000
9513.000000	328.000000
9517.000000	331.000000
9520.000000	337.000000
9523.000000	335.000000
9526.000000	330.000000
9530.000000	324.000000
9533.000000	323.000000
9536.000000	324.000000
9539.000000	328.000000
9542.000000	329.000000
9545.000000	330.000000
9549.000000	330.000000
9552.000000	328.000000
9555.000000	329.000000
9559.000000	335.000000
9562.000000	339.000000
9565.000000	333.000000
9568.000000	327.000000
9572.000000	325.000000
9575.000000	325.000000
9578.000000	332.000000
9581.000000	338.000000
9584.000000	337.000000
9587.000000	330.000000
9591.000000	328.000000
9594.000000	328.000000
9597.000000	328.000000
9601.000000	330.000000
9604.000000	332.000000
9607.000000	330.000000
9610.000000	327.000000
9614.000000	327.000000
9617.000000	330.000000
9620.000000	335.000000
9623.000000	332.000000
9626.000000	327.000000
9629.000000	323.000000
9633.000000	326.000000
9636.000000	331.000000
9639.000000	336.000000
9643.000000	337.000000
9646.000000	333.000000
9649.000000	326.000000
9653.000000	327.000000
9656.000000	329.000000
9659.000000	335.000000
9662.000000	336.000000
9665.000000	336.000000
9668.000000	332.000000
9671.000000	327.000000
9675.000000	323.000000
9678.000000	329.000000
9681.000000	332.000000
9684.000000	335.000000
9688.000000	330.000000
9691.000000	327.000000
9695.000000	327.000000
9698.000000	332.000000
9701.000000	334.000000
9704.000000	332.000000
9707.000000	326.000000
9710.000000	324.000000
9713.000000	326.000000
9717.000000	330.000000
9720.000000	335.000000
9723.000000	333.000000
9726.000000	329.000000
9730.000000	327.000000
9733.000000	327.000000
9737.000000	331.000000
9740.000000	335.000000
9743.000000	333.000000
9746.000000	328.000000
9749.000000	326.000000
9752.000000	327.000000
9755.000000	327.000000
9759.000000	328.000000
9762.000000	324.000000
9765.000000	318.000000
9768.000000	315.000000
9772.000000	320.000000
9775.000000	322.000000
9779.000000	328.000000
9782.000000	325.000000
9785.000000	322.000000
9788.000000	314.000000
9791.000000	311.000000
9794.000000	310.000000
9797.000000	313.000000
9801.000000	313.000000
9804.000000	314.000000
9807.000000	313.000000
9810.000000	314.000000
9814.000000	314.000000
9817.000000	318.000000
9821.000000	320.000000
9824.000000	318.000000
9827.000000	314.000000
9830.000000	313.000000
9833.000000	316.000000
9836.000000	323.000000
9839.000000	329.000000
9843.000000	327.000000
9846.000000	325.000000
9849.000000	327.000000
9852.000000	328.000000
9856.000000	331.000000
9859.000000	334.000000
9863.000000	333.000000
9866.000000	332.000000
9869.000000	332.000000
9872.000000	333.000000
9875.000000	337.000000
9878.000000	339.000000
9881.000000	336.000000
9885.000000	333.000000
9888.000000	331.000000
9891.000000	335.000000
9894.000000	341.000000
9897.000000	342.000000
9901.000000	332.000000
9905.000000	320.000000
9908.000000	304.000000
9911.000000	284.000000
9914.000000	262.000000
9917.000000	233.000000
9920.000000	200.000000
9923.000000	195.000000
9927.000000	210.000000
9930.000000	237.000000
9933.000000	260.000000
9936.000000	277.000000
9939.000000	290.000000
9943.000000	299.000000
9947.000000	307.000000
9950.000000	317.000000
9953.000000	324.000000
9956.000000	332.000000
9959.000000	336.000000
9962.000000	334.000000
9965.000000	329.000000
9969.000000	329.000000
9972.000000	332.000000
9975.000000	337.000000
9978.000000	341.000000
9981.000000	339.000000
9985.000000	336.000000
9989.000000	336.000000
9992.000000	340.000000
9995.000000	343.000000
9998.000000	345.000000
10001.000000	343.000000
10005.000000	338.000000
10008.000000	336.000000
10012.000000	337.000000
10015.000000	342.000000
10019.000000	344.000000
10022.000000	344.000000
10027.000000	335.000000
10030.000000	330.000000
10034.000000	332.000000
10037.000000	339.000000
10041.000000	339.000000
10044.000000	336.000000
10048.000000	335.000000
10051.000000	336.000000
10055.000000	337.000000
10058.000000	338.000000
10062.000000	335.000000
10065.000000	328.000000
10070.000000	325.000000
10073.000000	329.000000
10077.000000	337.000000
10080.000000	336.000000
10084.000000	331.000000
10087.000000	326.000000
10090.000000	324.000000
10094.000000	327.000000
10097.000000	331.000000
10101.000000	331.000000
10104.000000	323.000000
10108.000000	322.000000
10112.000000	322.000000
10116.000000	325.000000
10119.000000	322.000000
10123.000000	319.000000
10126.000000	316.000000
10130.000000	314.000000
10133.000000	317.000000
10137.000000	325.000000
10140.000000	323.000000
10144.000000	318.000000
10147.000000	313.000000
10151.000000	312.000000
10155.000000	317.000000
10159.000000	318.000000
10162.000000	315.000000
10166.000000	310.000000
10169.000000	308.000000
10173.000000	311.000000
10176.000000	312.000000
10180.000000	311.000000
10183.000000	309.000000
10187.000000	306.000000
10190.000000	303.000000
10194.000000	306.000000
10198.000000	311.000000
10202.000000	309.000000
10205.000000	303.000000
10209.000000	304.000000
10212.000000	312.000000
10216.000000	318.000000
10219.000000	317.000000
10222.000000	317.000000
10226.000000	317.000000
10229.000000	320.000000
10233.000000	322.000000
10236.000000	324.000000
10241.000000	329.000000
10244.000000	331.000000
10248.000000	330.000000
10251.000000	330.000000
10255.000000	336.000000
10258.000000	338.000000
10262.000000	337.000000
10265.000000	332.000000
10269.000000	332.000000
10272.000000	335.000000
10276.000000	339.000000
10279.000000	338.000000
10284.000000	333.000000
10287.000000	333.000000
10291.000000	336.000000
10294.000000	343.000000
10298.000000	344.000000
10301.000000	340.000000
10305.000000	334.000000
10308.000000	333.000000
10312.000000	339.000000
10315.000000	340.000000
10319.000000	337.000000
10322.000000	333.000000
10327.000000	333.000000
10330.000000	334.000000
10334.000000	336.000000
10337.000000	338.000000
10341.000000	337.000000
10344.000000	334.000000
10348.000000	333.000000
10351.000000	334.000000
10354.000000	338.000000
10358.000000	337.000000
10361.000000	334.000000
10365.000000	333.000000
10369.000000	332.000000
10373.000000	334.000000
10376.000000	336.000000
10380.000000	336.000000
10383.000000	335.000000
10387.000000	334.000000
10390.000000	333.000000
10394.000000	337.000000
10397.000000	339.000000
10401.000000	337.000000
10404.000000	331.000000
10408.000000	330.000000
10412.000000	333.000000
10416.000000	340.000000
10419.000000	346.000000
10423.000000	336.000000
10426.000000	329.000000
10430.000000	330.000000
10433.000000	336.000000
10437.000000	336.000000
10440.000000	334.000000
10444.000000	331.000000
10447.000000	331.000000
10451.000000	335.000000
10455.000000	336.000000
10459.000000	334.000000
10462.000000	334.000000
10466.000000	335.000000
10469.000000	337.000000
10473.000000	342.000000
10476.000000	339.000000
10479.000000	336.000000
10483.000000	332.000000
10486.000000	332.000000
10490.000000	334.000000
10493.000000	338.000000
10498.000000	338.000000
10501.000000	338.000000
10505.000000	335.000000
10508.000000	334.000000
10512.000000	338.000000
10515.000000	339.000000
10519.000000	336.000000
10522.000000	334.000000
10526.000000	335.000000
10529.000000	339.000000
10533.000000	341.000000
10536.000000	336.000000
10541.000000	334.000000
10544.000000	330.000000
10548.000000	331.000000
10551.000000	336.000000
10555.000000	340.000000
10558.000000	337.000000
10562.000000	328.000000
10565.000000	326.000000
10569.000000	325.000000
10572.000000	334.000000
10576.000000	338.000000
10579.000000	333.000000
10584.000000	330.000000
10587.000000	330.000000
10591.000000	331.000000
10594.000000	332.000000
10598.000000	327.000000
10601.000000	321.000000
10605.000000	318.000000
10608.000000	321.000000
10611.000000	325.000000
10615.000000	327.000000
10618.000000	325.000000
10622.000000	315.000000
10626.000000	309.000000
10630.000000	310.000000
10633.000000	316.000000
10637.000000	317.000000
10640.000000	319.000000
10644.000000	317.000000
10647.000000	317.000000
10651.000000	318.000000
10654.000000	321.000000
10658.000000	318.000000
10661.000000	316.000000
10665.000000	318.000000
10669.000000	325.000000
10673.000000	332.000000
10676.000000	331.000000
10680.000000	329.000000
10683.000000	330.000000
10687.000000	332.000000
10690.000000	338.000000
10694.000000	340.000000
10697.000000	337.000000
10701.000000	332.000000
10704.000000	330.000000
10708.000000	331.000000
10712.000000	337.000000
10716.000000	342.000000
10719.000000	342.000000
10723.000000	338.000000
10726.000000	336.000000
10730.000000	332.000000
10733.000000	322.000000
10737.000000	300.000000
10740.000000	272.000000
10743.000000	242.000000
10747.000000	208.000000
10750.000000	198.000000
10755.000000	220.000000
10758.000000	248.000000
10762.000000	264.000000
10765.000000	280.000000
10769.000000	293.000000
10772.000000	307.000000
10776.000000	316.000000
10779.000000	324.000000
10783.000000	328.000000
10786.000000	332.000000
10790.000000	336.000000
10793.000000	340.000000
10798.000000	339.000000
10801.000000	332.000000
10805.000000	334.000000
10808.000000	336.000000
10812.000000	341.000000
10815.000000	342.000000
10819.000000	343.000000
10822.000000	340.000000
10826.000000	339.000000
10829.000000	344.000000
10833.000000	347.000000
10836.000000	345.000000
10841.000000	342.000000
10844.000000	338.000000
10848.000000	336.000000
10851.000000	336.000000
10855.000000	336.000000
10858.000000	335.000000
10862.000000	333.000000
10865.000000	333.000000
10869.000000	338.000000
10872.000000	343.000000
10875.000000	339.000000
10880.000000	329.000000
10883.000000	326.000000
10887.000000	327.000000
10890.000000	334.000000
10894.000000	337.000000
10897.000000	333.000000
10901.000000	326.000000
10904.000000	326.000000
10908.000000	329.000000
10911.000000	335.000000
10915.000000	333.000000
10918.000000	327.000000
10923.000000	324.000000
10926.000000	324.000000
10930.000000	326.000000
10933.000000	328.000000
10937.000000	326.000000
10940.000000	320.000000
10944.000000	317.000000
10947.000000	320.000000
10951.000000	327.000000
10954.000000	327.000000
10958.000000	322.000000
10961.000000	318.000000
10966.000000	317.000000
10969.000000	319.000000
10973.000000	317.000000
10976.000000	315.000000
10980.000000	310.000000
10983.000000	310.000000
10987.000000	310.000000
10990.000000	312.000000
10994.000000	311.000000
10997.000000	308.000000
11001.000000	305.000000
11004.000000	306.000000
11008.000000	308.000000
11012.000000	311.000000
11015.000000	306.000000
11019.000000	302.000000
11022.000000	302.000000
11026.000000	306.000000
11029.000000	311.000000
11033.000000	310.000000
11036.000000	310.000000
11040.000000	309.000000
11043.000000	310.000000
11047.000000	313.000000
11051.000000	321.000000
11055.000000	323.000000
11058.000000	320.000000
11062.000000	319.000000
11065.000000	319.000000
11069.000000	325.000000
11072.000000	328.000000
11076.000000	329.000000
11079.000000	328.000000
11083.000000	333.000000
11086.000000	333.000000
11090.000000	340.000000
11094.000000	339.000000
11098.000000	331.000000
11101.000000	325.000000
11105.000000	329.000000
11108.000000	337.000000
11112.000000	342.000000
11115.000000	340.000000
11119.000000	333.000000
11122.000000	331.000000
11126.000000	332.000000
11129.000000	341.000000
11132.000000	340.000000
11137.000000	335.000000
11140.000000	329.000000
11144.000000	328.000000
11147.000000	333.000000
11151.000000	335.000000
11154.000000	334.000000
11158.000000	332.000000
11161.000000	332.000000
11165.000000	331.000000
11168.000000	334.000000
11172.000000	334.000000
11175.000000	332.000000
11180.000000	327.000000
11183.000000	328.000000
11187.000000	332.000000
11190.000000	339.000000
11194.000000	335.000000
11197.000000	328.000000
11201.000000	328.000000
11204.000000	326.000000
11208.000000	331.000000
11211.000000	334.000000
11215.000000	333.000000
11218.000000	330.000000
11223.000000	328.000000
11226.000000	330.000000
11230.000000	336.000000
11233.000000	335.000000
11237.000000	331.000000
11240.000000	331.000000
11244.000000	330.000000
11247.000000	334.000000
11251.000000	333.000000
11254.000000	330.000000
11258.000000	328.000000
11261.000000	328.000000
11265.000000	331.000000
11269.000000	337.000000
11272.000000	336.000000
11276.000000	333.000000
11279.000000	329.000000
11283.000000	330.000000
11286.000000	333.000000
11290.000000	336.000000
11293.000000	335.000000
11297.000000	334.000000
11300.000000	333.000000
11304.000000	339.000000
11308.000000	345.000000
11312.000000	338.000000
11315.000000	331.000000
11319.000000	327.000000
11322.000000	328.000000
11326.000000	329.000000
11329.000000	332.000000
11333.000000	332.000000
11336.000000	331.000000
11340.000000	330.000000
11343.000000	330.000000
11347.000000	334.000000
11351.000000	334.000000
11355.000000	332.000000
11358.000000	332.000000
11362.000000	329.000000
11365.000000	333.000000
11369.000000	338.000000
11372.000000	336.000000
11376.000000	332.000000
11379.000000	328.000000
11383.000000	329.000000
11386.000000	334.000000
11390.000000	336.000000
11394.000000	331.000000
11397.000000	325.000000
11401.000000	323.000000
11404.000000	323.000000
11408.000000	328.000000
11411.000000	327.000000
11415.000000	323.000000
11418.000000	320.000000
11422.000000	320.000000
11425.000000	327.000000
11429.000000	327.000000
11432.000000	325.000000
11437.000000	315.000000
11440.000000	307.000000
11444.000000	306.000000
11447.000000	315.000000
11451.000000	319.000000
11454.000000	317.000000
11458.000000	314.000000
11461.000000	314.000000
11465.000000	321.000000
11468.000000	324.000000
11472.000000	322.000000
11475.000000	319.000000
11480.000000	318.000000
11483.000000	321.000000
11487.000000	328.000000
11490.000000	330.000000
11494.000000	329.000000
11497.000000	329.000000
11501.000000	334.000000
11504.000000	334.000000
11508.000000	338.000000
11511.000000	337.000000
11515.000000	333.000000
11518.000000	333.000000
11523.000000	333.000000
11526.000000	334.000000
11529.000000	335.000000
11533.000000	333.000000
11536.000000	331.000000
11540.000000	332.000000
11543.000000	330.000000
11547.000000	325.000000
11550.000000	311.000000
11554.000000	288.000000
11557.000000	261.000000
11561.000000	225.000000
11565.000000	199.000000
11569.000000	209.000000
11572.000000	231.000000
11576.000000	253.000000
11579.000000	272.000000
11583.000000	286.000000
11586.000000	302.000000
11590.000000	312.000000
11593.000000	320.000000
11597.000000	323.000000
11600.000000	326.000000
11604.000000	332.000000
11608.000000	334.000000
11612.000000	334.000000
11615.000000	336.000000
11619.000000	341.000000
11622.000000	338.000000
11626.000000	338.000000
11629.000000	339.000000
11633.000000	339.000000
11636.000000	333.000000
11640.000000	332.000000
11643.000000	338.000000
11648.000000	344.000000
11651.000000	341.000000
11655.000000	334.000000
11658.000000	330.000000
11661.000000	332.000000
11665.000000	336.000000
11668.000000	336.000000
11672.000000	333.000000
11675.000000	330.000000
11679.000000	331.000000
11682.000000	332.000000
11686.000000	337.000000
11689.000000	333.000000
11694.000000	327.000000
11697.000000	326.000000
11701.000000	327.000000
11704.000000	333.000000
11708.000000	335.000000
11711.000000	332.000000
11715.000000	326.000000
11718.000000	321.000000
11722.000000	325.000000
11725.000000	332.000000
11729.000000	330.000000
11732.000000	324.000000
11737.000000	322.000000
11740.000000	319.000000
11744.000000	321.000000
11747.000000	325.000000
11751.000000	322.000000
11754.000000	316.000000
11758.000000	314.000000
11761.000000	313.000000
11765.000000	315.000000
11768.000000	315.000000
11772.000000	315.000000
11776.000000	312.000000
11780.000000	310.000000
11783.000000	313.000000
11786.000000	315.000000
11790.000000	311.000000
11793.000000	304.000000
11797.000000	303.000000
11800.000000	303.000000
11804.000000	307.000000
11807.000000	305.000000
11811.000000	304.000000
11814.000000	301.000000
11819.000000	304.000000
11822.000000	305.000000
11826.000000	309.000000
11829.000000	305.000000
11833.000000	301.000000
11836.000000	299.000000
11840.000000	300.000000
11843.000000	308.000000
11847.000000	313.000000
11850.000000	307.000000
11854.000000	302.000000
11857.000000	305.000000
11862.000000	311.000000
11865.000000	321.000000
11869.000000	319.000000
11872.000000	317.000000
11876.000000	315.000000
11879.000000	318.000000
11883.000000	324.000000
11886.000000	330.000000
11890.000000	332.000000
11893.000000	329.000000
11897.000000	331.000000
11900.000000	333.000000
11905.000000	337.000000
11908.000000	336.000000
11912.000000	333.000000
11915.000000	330.000000
11918.000000	328.000000
11922.000000	333.000000
11925.000000	336.000000
11929.000000	334.000000
11932.000000	331.000000
11936.000000	331.000000
11939.000000	333.000000
11943.000000	338.000000
11947.000000	338.000000
11951.000000	336.000000
11954.000000	334.000000
11958.000000	332.000000
11961.000000	331.000000
11965.000000	336.000000
11968.000000	336.000000
11972.000000	333.000000
11975.000000	332.000000
11979.000000	332.000000
11982.000000	335.000000
11986.000000	335.000000
11990.000000	333.000000
11994.000000	334.000000
11997.000000	336.000000
12001.000000	339.000000
12004.000000	341.000000
12008.000000	339.000000
12011.000000	335.000000
12015.000000	331.000000
12018.000000	330.000000
12022.000000	336.000000
12025.000000	338.000000
12029.000000	337.000000
12033.000000	332.000000
12037.000000	329.000000
12040.000000	332.000000
12044.000000	339.000000
12047.000000	341.000000
12050.000000	335.000000
12054.000000	332.000000
12057.000000	332.000000
12061.000000	336.000000
12064.000000	341.000000
12068.000000	336.000000
12071.000000	330.000000
12076.000000	328.000000
12079.000000	329.000000
12083.000000	337.000000
12086.000000	341.000000
12090.000000	338.000000
12093.000000	331.000000
12097.000000	329.000000
12100.000000	333.000000
12104.000000	337.000000
12107.000000	337.000000
12111.000000	334.000000
12114.000000	335.000000
12119.000000	336.000000
12122.000000	339.000000
12126.000000	341.000000
12129.000000	338.000000
12133.000000	331.000000
12136.000000	331.000000
12140.000000	337.000000
12143.000000	343.000000
12147.000000	338.000000
12150.000000	331.000000
12154.000000	328.000000
12157.000000	328.000000
12162.000000	336.000000
12165.000000	341.000000
12169.000000	340.000000
12172.000000	336.000000
12176.000000	334.000000
12179.000000	333.000000
12182.000000	339.000000
12186.000000	339.000000
12189.000000	329.000000
12193.000000	326.000000
12196.000000	328.000000
12200.000000	334.000000
12204.000000	338.000000
12208.000000	333.000000
12211.000000	326.000000
12215.000000	325.000000
12218.000000	324.000000
12222.000000	328.000000
12225.000000	328.000000
12229.000000	322.000000
12232.000000	318.000000
12236.000000	320.000000
12239.000000	327.000000
12243.000000	330.000000
12247.000000	327.000000
12251.000000	318.000000
12254.000000	311.000000
12258.000000	312.000000
12261.000000	317.000000
12265.000000	317.000000
12268.000000	315.000000
12272.000000	314.000000
12275.000000	314.000000
12279.000000	319.000000
12282.000000	326.000000
12286.000000	326.000000
12290.000000	323.000000
12294.000000	323.000000
12297.000000	324.000000
12301.000000	332.000000
12304.000000	336.000000
12307.000000	334.000000
12311.000000	331.000000
12314.000000	332.000000
12318.000000	335.000000
12321.000000	342.000000
12325.000000	340.000000
12328.000000	338.000000
12333.000000	333.000000
12336.000000	331.000000
12340.000000	334.000000
12343.000000	337.000000
12347.000000	339.000000
12350.000000	336.000000
12354.000000	333.000000
12357.000000	329.000000
12361.000000	321.000000
12364.000000	298.000000
12368.000000	267.000000
12371.000000	226.000000
12376.000000	190.000000
12379.000000	189.000000
12383.000000	217.000000
12386.000000	244.000000
12390.000000	264.000000
12393.000000	278.000000
12396.000000	292.000000
12400.000000	305.000000
12403.000000	318.000000
12407.000000	327.000000
12410.000000	327.000000
12414.000000	330.000000
12418.000000	335.000000
12422.000000	341.000000
12425.000000	341.000000
12429.000000	336.000000
12432.000000	339.000000
12436.000000	342.000000
12439.000000	347.000000
12443.000000	350.000000
12446.000000	346.000000
12450.000000	341.000000
12453.000000	340.000000
12457.000000	341.000000
12461.000000	345.000000
12465.000000	343.000000
12468.000000	340.000000
12472.000000	337.000000
12475.000000	339.000000
12479.000000	344.000000
12482.000000	344.000000
12486.000000	342.000000
12489.000000	336.000000
12493.000000	336.000000
12496.000000	336.000000
12500.000000	342.000000
12504.000000	342.000000
12508.000000	336.000000
12511.000000	332.000000
12515.000000	333.000000
12518.000000	336.000000
12522.000000	341.000000
12525.000000	338.000000
12528.000000	331.000000
12532.000000	329.000000
12535.000000	329.000000
12539.000000	332.000000
12542.000000	331.000000
12547.000000	328.000000
12550.000000	324.000000
12554.000000	324.000000
12557.000000	326.000000
12561.000000	332.000000
12564.000000	329.000000
12568.000000	325.000000
12571.000000	323.000000
12575.000000	323.000000
12578.000000	326.000000
12582.000000	325.000000
12585.000000	320.000000
12590.000000	317.000000
12593.000000	314.000000
12597.000000	313.000000
12600.000000	318.000000
12604.000000	318.000000
12607.000000	317.000000
12611.000000	311.000000
12614.000000	309.000000
12618.000000	316.000000
12621.000000	319.000000
12625.000000	315.000000
12628.000000	308.000000
12633.000000	307.000000
12636.000000	306.000000
12640.000000	310.000000
12643.000000	309.000000
12647.000000	305.000000
12650.000000	300.000000
12654.000000	304.000000
12657.000000	312.000000
12660.000000	317.000000
12664.000000	312.000000
12667.000000	307.000000
12672.000000	308.000000
12675.000000	312.000000
12679.000000	322.000000
12682.000000	326.000000
12686.000000	327.000000
12689.000000	323.000000
12693.000000	323.000000
12696.000000	327.000000
12700.000000	329.000000
12703.000000	327.000000
12707.000000	327.000000
12710.000000	326.000000
12715.000000	328.000000
12718.000000	336.000000
12722.000000	343.000000
12725.000000	342.000000
12729.000000	334.000000
12732.000000	334.000000
12736.000000	340.000000
12739.000000	342.000000
12743.000000	341.000000
12746.000000	339.000000
12750.000000	333.000000
12753.000000	332.000000
12758.000000	338.000000
12761.000000	338.000000
12765.000000	336.000000
12768.000000	333.000000
12772.000000	332.000000
12775.000000	331.000000
12779.000000	336.000000
12782.000000	333.000000
12786.000000	332.000000
12789.000000	333.000000
12792.000000	336.000000
12796.000000	336.000000
12800.000000	333.000000
12804.000000	330.000000
12807.000000	328.000000
12811.000000	331.000000
12814.000000	335.000000
12818.000000	338.000000
12821.000000	334.000000
12825.000000	330.000000
12828.000000	328.000000
12832.000000	330.000000
12835.000000	332.000000
12839.000000	336.000000
12843.000000	335.000000
12847.000000	328.000000
12850.000000	326.000000
12854.000000	332.000000
12857.000000	338.000000
12861.000000	339.000000
12864.000000	336.000000
12868.000000	330.000000
12871.000000	329.000000
12875.000000	332.000000
12878.000000	336.000000
12882.000000	335.000000
12886.000000	330.000000
12890.000000	327.000000
12893.000000	327.000000
12897.000000	335.000000
12900.000000	339.000000
12904.000000	338.000000
12907.000000	331.000000
12911.000000	328.000000
12914.000000	329.000000
12917.000000	335.000000
12921.000000	337.000000
12924.000000	334.000000
12929.000000	329.000000
12932.000000	328.000000
12936.000000	334.000000
12939.000000	339.000000
12943.000000	339.000000
12946.000000	331.000000
12950.000000	329.000000
12953.000000	329.000000
12957.000000	334.000000
12960.000000	335.000000
12964.000000	332.000000
12967.000000	329.000000
12972.000000	330.000000
12975.000000	333.000000
12979.000000	337.000000
12982.000000	338.000000
12986.000000	331.000000
12989.000000	328.000000
12993.000000	329.000000
12996.000000	332.000000
13000.000000	332.000000
13003.000000	330.000000
13007.000000	329.000000
13010.000000	330.000000
13015.000000	330.000000
13018.000000	331.000000
13022.000000	329.000000
13025.000000	324.000000
13029.000000	321.000000
13032.000000	321.000000
13036.000000	327.000000
13039.000000	330.000000
13043.000000	326.000000
13046.000000	319.000000
13049.000000	318.000000
13053.000000	320.000000
13057.000000	322.000000
13061.000000	317.000000
13064.000000	313.000000
13068.000000	312.000000
13071.000000	318.000000
13075.000000	322.000000
13078.000000	324.000000
13082.000000	322.000000
13085.000000	318.000000
13089.000000	316.000000
13092.000000	316.000000
13096.000000	321.000000
13100.000000	321.000000
13104.000000	322.000000
13107.000000	322.000000
13111.000000	327.000000
13114.000000	333.000000
13118.000000	339.000000
13121.000000	342.000000
13125.000000	339.000000
13128.000000	336.000000
13132.000000	333.000000
13135.000000	336.000000
13139.000000	335.000000
13143.000000	332.000000
13147.000000	329.000000
13150.000000	331.000000
13154.000000	335.000000
13157.000000	340.000000
13161.000000	338.000000
13164.000000	332.000000
13168.000000	325.000000
13171.000000	315.000000
13175.000000	302.000000
13178.000000	274.000000
13181.000000	239.000000
13186.000000	197.000000
13189.000000	185.000000
13193.000000	210.000000
13196.000000	248.000000
13200.000000	272.000000
13203.000000	285.000000
13207.000000	295.000000
13210.000000	309.000000
13214.000000	324.000000
13217.000000	331.000000
13221.000000	330.000000
13224.000000	326.000000
13229.000000	328.000000
13232.000000	330.000000
13236.000000	335.000000
13239.000000	338.000000
13243.000000	341.000000
13246.000000	342.000000
13250.000000	340.000000
13253.000000	341.000000
13257.000000	342.000000
13260.000000	340.000000
13264.000000	337.000000
13267.000000	335.000000
13272.000000	334.000000
13275.000000	341.000000
13279.000000	343.000000
13282.000000	340.000000
13286.000000	336.000000
13289.000000	336.000000
13293.000000	337.000000
13296.000000	340.000000
13300.000000	337.000000
13303.000000	330.000000
13307.000000	328.000000
13310.000000	332.000000
13314.000000	339.000000
13318.000000	339.000000
13321.000000	332.000000
13325.000000	326.000000
13328.000000	327.000000
13332.000000	328.000000
13335.000000	330.000000
13339.000000	330.000000
13342.000000	325.000000
13346.000000	325.000000
13349.000000	325.000000
13353.000000	327.000000
13357.000000	329.000000
13361.000000	325.000000
13364.000000	320.000000
13368.000000	322.000000
13371.000000	319.000000
13375.000000	325.000000
13378.000000	324.000000
13382.000000	318.000000
13385.000000	313.000000
13389.000000	314.000000
13392.000000	318.000000
13396.000000	321.000000
13400.000000	317.000000
13404.000000	309.000000
13407.000000	307.000000
13411.000000	308.000000
13414.000000	314.000000
13418.000000	314.000000
13421.000000	308.000000
13425.000000	301.000000
13428.000000	302.000000
13432.000000	307.000000
13435.000000	309.000000
13438.000000	305.000000
13443.000000	299.000000
13446.000000	298.000000
13450.000000	301.000000
13453.000000	309.000000
13457.000000	309.000000
13460.000000	303.000000
13464.000000	299.000000
13467.000000	301.000000
13471.000000	306.000000
13474.000000	317.000000
13478.000000	316.000000
13481.000000	311.000000
13486.000000	309.000000
13489.000000	314.000000
13493.000000	323.000000
13496.000000	326.000000
13500.000000	327.000000
13503.000000	325.000000
13507.000000	328.000000
13510.000000	333.000000
13514.000000	340.000000
13517.000000	341.000000
13521.000000	337.000000
13524.000000	333.000000
13529.000000	333.000000
13532.000000	339.000000
13536.000000	344.000000
13539.000000	341.000000
13543.000000	334.000000
13546.000000	336.000000
13550.000000	338.000000
13553.000000	345.000000
13557.000000	344.000000
13560.000000	337.000000
13564.000000	334.000000
13568.000000	336.000000
13571.000000	339.000000
13575.000000	340.000000
13578.000000	337.000000
13582.000000	334.000000
13585.000000	332.000000
13589.000000	334.000000
13592.000000	340.000000
13596.000000	339.000000
13599.000000	338.000000
13603.000000	332.000000
13606.000000	330.000000
13611.000000	332.000000
13614.000000	336.000000
13618.000000	335.000000
13621.000000	332.000000
13625.000000	332.000000
13628.000000	332.000000
13632.000000	335.000000
13635.000000	336.000000
13639.000000	333.000000
13642.000000	328.000000
13646.000000	328.000000
13649.000000	330.000000
13654.000000	336.000000
13657.000000	334.000000
13661.000000	329.000000
13664.000000	328.000000
13668.000000	330.000000
13671.000000	335.000000
13675.000000	336.000000
13678.000000	332.000000
13682.000000	327.000000
13685.000000	327.000000
13689.000000	329.000000
13692.000000	336.000000
13697.000000	338.000000
13700.000000	332.000000
13703.000000	324.000000
13707.000000	324.000000
13710.000000	330.000000
13714.000000	335.000000
13717.000000	334.000000
13721.000000	329.000000
13724.000000	327.000000
13728.000000	326.000000
13731.000000	332.000000
13735.000000	334.000000
13739.000000	335.000000
13743.000000	331.000000
13746.000000	330.000000
13750.000000	331.000000
13753.000000	336.000000
13757.000000	333.000000
13760.000000	330.000000
13764.000000	331.000000
13767.000000	328.000000
13771.000000	329.000000
13774.000000	331.000000
13778.000000	329.000000
13782.000000	326.000000
13786.000000	328.000000
13789.000000	330.000000
13793.000000	335.000000
13796.000000	332.000000
13800.000000	329.000000
13803.000000	327.000000
13807.000000	329.000000
13810.000000	338.000000
13814.000000	336.000000
13817.000000	329.000000
13821.000000	325.000000
13825.000000	326.000000
13829.000000	327.000000
13832.000000	334.000000
13835.000000	335.000000
13839.000000	331.000000
13842.000000	325.000000
13846.000000	326.000000
13849.000000	333.000000
13853.000000	336.000000
13856.000000	331.000000
13860.000000	323.000000
13863.000000	321.000000
13868.000000	319.000000
13871.000000	324.000000
13875.000000	322.000000
13878.000000	319.000000
13882.000000	320.000000
13885.000000	321.000000
13889.000000	323.000000
13892.000000	325.000000
13896.000000	318.000000
13899.000000	312.000000
13903.000000	306.000000
13906.000000	307.000000
13911.000000	316.000000
13914.000000	322.000000
13918.000000	319.000000
13921.000000	314.000000
13925.000000	319.000000
13928.000000	320.000000
13932.000000	324.000000
13935.000000	322.000000
13939.000000	320.000000
13942.000000	320.000000
13946.000000	325.000000
13949.000000	337.000000
13954.000000	344.000000
13957.000000	341.000000
13961.000000	335.000000
13964.000000	334.000000
13967.000000	336.000000
13971.000000	342.000000
13974.000000	344.000000
13978.000000	339.000000
13981.000000	335.000000
13985.000000	336.000000
13988.000000	342.000000
13992.000000	345.000000
13996.000000	344.000000
14000.000000	334.000000
14003.000000	325.000000
14007.000000	314.000000
14010.000000	295.000000
14014.000000	263.000000
14017.000000	225.000000
14021.000000	195.000000
14024.000000	200.000000
14028.000000	236.000000
14031.000000	273.000000
14035.000000	288.000000
14039.000000	295.000000
14043.000000	304.000000
14046.000000	320.000000
14050.000000	336.000000
14053.000000	341.000000
14057.000000	339.000000
14060.000000	338.000000
14064.000000	340.000000
14067.000000	342.000000
14071.000000	347.000000
14074.000000	348.000000
14078.000000	346.000000
14082.000000	345.000000
14086.000000	347.000000
14089.000000	354.000000
14092.000000	355.000000
14096.000000	351.000000
14099.000000	345.000000
14103.000000	344.000000
14106.000000	346.000000
14110.000000	350.000000
14113.000000	349.000000
14117.000000	347.000000
14120.000000	347.000000
14125.000000	352.000000
14128.000000	350.000000
14132.000000	346.000000
14135.000000	344.000000
14139.000000	337.000000
14142.000000	339.000000
14146.000000	343.000000
14149.000000	348.000000
14153.000000	349.000000
14156.000000	346.000000
14160.000000	342.000000
14163.000000	343.000000
14168.000000	343.000000
14171.000000	345.000000
14175.000000	343.000000
14178.000000	340.000000
14182.000000	343.000000
14185.000000	343.000000
14189.000000	348.000000
14192.000000	348.000000
14196.000000	344.000000
14199.000000	339.000000
14203.000000	340.000000
14206.000000	340.000000
14211.000000	340.000000
14214.000000	338.000000
14218.000000	333.000000
14221.000000	332.000000
14224.000000	336.000000
14228.000000	339.000000
14231.000000	338.000000
14235.000000	336.000000
14238.000000	332.000000
14242.000000	333.000000
14245.000000	334.000000
14249.000000	336.000000
14253.000000	328.000000
14257.000000	323.000000
14260.000000	323.000000
14264.000000	322.000000
14267.000000	326.000000
14271.000000	330.000000
14274.000000	329.000000
14278.000000	325.000000
14281.000000	324.000000
14285.000000	325.000000
14288.000000	330.000000
14292.000000	329.000000
14296.000000	325.000000
14300.000000	325.000000
14303.000000	327.000000
14307.000000	333.000000
14310.000000	338.000000
14314.000000	337.000000
14317.000000	333.000000
14321.000000	335.000000
14324.000000	342.000000
14328.000000	351.000000
14331.000000	353.000000
14336.000000	353.000000
14339.000000	350.000000
14343.000000	351.000000
14346.000000	356.000000
14350.000000	364.000000
14353.000000	363.000000
14356.000000	358.000000
14360.000000	357.000000
14363.000000	358.000000
14367.000000	363.000000
14370.000000	365.000000
14374.000000	360.000000
14377.000000	358.000000
14382.000000	360.000000
14385.000000	361.000000
14389.000000	365.000000
14392.000000	362.000000
14396.000000	359.000000
14399.000000	356.000000
14403.000000	357.000000
14406.000000	361.000000
14410.000000	362.000000
14413.000000	357.000000
14417.000000	350.000000
14420.000000	350.000000
14425.000000	354.000000
14428.000000	360.000000
14432.000000	356.000000
14435.000000	352.000000
14439.000000	350.000000
14442.000000	345.000000
14446.000000	347.000000
14449.000000	351.000000
14453.000000	350.000000
14456.000000	345.000000
14460.000000	344.000000
14464.000000	344.000000
14468.000000	345.000000
14471.000000	341.000000
14475.000000	336.000000
14478.000000	333.000000
14482.000000	334.000000
14485.000000	340.000000
14488.000000	338.000000
14492.000000	334.000000
14495.000000	329.000000
14499.000000	327.000000
14502.000000	329.000000
14507.000000	335.000000
14510.000000	334.000000
14514.000000	329.000000
14517.000000	325.000000
14521.000000	326.000000
14524.000000	331.000000
14528.000000	333.000000
14531.000000	329.000000
14535.000000	323.000000
14538.000000	317.000000
14542.000000	318.000000
14545.000000	326.000000
14550.000000	330.000000
14553.000000	326.000000
14557.000000	320.000000
14560.000000	316.000000
14564.000000	319.000000
14567.000000	327.000000
14571.000000	324.000000
14574.000000	319.000000
14578.000000	315.000000
14581.000000	314.000000
14585.000000	318.000000
14588.000000	322.000000
14593.000000	324.000000
14596.000000	315.000000
14600.000000	307.000000
14603.000000	310.000000
14607.000000	321.000000
14610.000000	323.000000
14614.000000	315.000000
14617.000000	310.000000
14620.000000	309.000000
14624.000000	311.000000
14627.000000	314.000000
14631.000000	311.000000
14635.000000	309.000000
14639.000000	311.000000
14642.000000	312.000000
14646.000000	316.000000
14649.000000	317.000000
14653.000000	314.000000
14656.000000	310.000000
14660.000000	311.000000
14663.000000	312.000000
14667.000000	314.000000
14670.000000	311.000000
14674.000000	307.000000
14678.000000	308.000000
14682.000000	310.000000
14685.000000	314.000000
14689.000000	314.000000
14692.000000	310.000000
14696.000000	304.000000
14699.000000	304.000000
14703.000000	312.000000
14706.000000	313.000000
14710.000000	304.000000
14713.000000	300.000000
14717.000000	298.000000
14721.000000	299.000000
14725.000000	301.000000
14728.000000	302.000000
14732.000000	300.000000
14735.000000	300.000000
14739.000000	300.000000
14742.000000	295.000000
14745.000000	292.000000
14749.000000	288.000000
14752.000000	285.000000
14756.000000	287.000000
14759.000000	290.000000
14764.000000	295.000000
14767.000000	300.000000
14771.000000	297.000000
14774.000000	293.000000
14778.000000	293.000000
14781.000000	294.000000
14785.000000	300.000000
14788.000000	301.000000
14792.000000	303.000000
14795.000000	305.000000
14799.000000	309.000000
14802.000000	312.000000
14807.000000	314.000000
14810.000000	311.000000
14814.000000	310.000000
14817.000000	311.000000
14821.000000	312.000000
14824.000000	313.000000
14828.000000	312.000000
14831.000000	309.000000
14835.000000	304.000000
14838.000000	309.000000
14842.000000	316.000000
14845.000000	319.000000
14850.000000	314.000000
14853.000000	305.000000
14857.000000	293.000000
14860.000000	277.000000
14864.000000	254.000000
14867.000000	223.000000
14871.000000	185.000000
14874.000000	173.000000
14877.000000	200.000000
14881.000000	233.000000
14884.000000	261.000000
14888.000000	274.000000
14892.000000	282.000000
14896.000000	289.000000
14899.000000	299.000000
14903.000000	308.000000
14906.000000	311.000000
14910.000000	310.000000
14913.000000	308.000000
14917.000000	310.000000
14920.000000	316.000000
14924.000000	323.000000
14927.000000	321.000000
14931.000000	320.000000
14935.000000	317.000000
14939.000000	315.000000
14942.000000	319.000000
14946.000000	325.000000
14949.000000	325.000000
14953.000000	321.000000
14956.000000	321.000000
14960.000000	320.000000
14963.000000	325.000000
14967.000000	321.000000
14970.000000	318.000000
14974.000000	314.000000
14978.000000	315.000000
14982.000000	320.000000
14985.000000	327.000000
14989.000000	322.000000
14992.000000	315.000000
14996.000000	315.000000
14999.000000	316.000000
15003.000000	316.000000
15006.000000	316.000000
15009.000000	313.000000
15013.000000	309.000000
15016.000000	308.000000
15021.000000	311.000000
15024.000000	315.000000
15028.000000	315.000000
15031.000000	313.000000
15035.000000	308.000000
15038.000000	309.000000
15042.000000	315.000000
15045.000000	313.000000
15049.000000	308.000000
15052.000000	302.000000
15056.000000	302.000000
15059.000000	304.000000
15064.000000	311.000000
15067.000000	309.000000
15071.000000	303.000000
15074.000000	299.000000
15078.000000	299.000000
15081.000000	303.000000
15085.000000	309.000000
15088.000000	305.000000
15092.000000	295.000000
15095.000000	293.000000
15099.000000	293.000000
15102.000000	298.000000
15107.000000	297.000000
15110.000000	296.000000
15114.000000	293.000000
15117.000000	296.000000
15121.000000	299.000000
15124.000000	298.000000
15128.000000	294.000000
15131.000000	294.000000
15135.000000	289.000000
15138.000000	285.000000
15141.000000	289.000000
15145.000000	289.000000
15149.000000	290.000000
15153.000000	290.000000
15156.000000	296.000000
15160.000000	301.000000
15163.000000	306.000000
15167.000000	303.000000
15170.000000	302.000000
15174.000000	301.000000
15177.000000	305.000000
15181.000000	313.000000
15184.000000	318.000000
15188.000000	318.000000
15192.000000	314.000000
15196.000000	313.000000
15199.000000	315.000000
15203.000000	321.000000
15206.000000	323.000000
15210.000000	322.000000
15213.000000	324.000000
15217.000000	326.000000
15220.000000	329.000000
15224.000000	332.000000
15227.000000	330.000000
15232.000000	322.000000
15235.000000	322.000000
15239.000000	325.000000
15242.000000	332.000000
15246.000000	332.000000
15249.000000	329.000000
15253.000000	325.000000
15256.000000	326.000000
15260.000000	326.000000
15263.000000	329.000000
15266.000000	327.000000
15270.000000	323.000000
15273.000000	321.000000
15278.000000	324.000000
15281.000000	330.000000
15285.000000	332.000000
15288.000000	331.000000
15292.000000	325.000000
15295.000000	325.000000
15299.000000	326.000000
15302.000000	331.000000
15306.000000	327.000000
15309.000000	322.000000
15313.000000	320.000000
15316.000000	320.000000
15321.000000	324.000000
15324.000000	327.000000
15328.000000	328.000000
15331.000000	324.000000
15335.000000	326.000000
15338.000000	331.000000
15342.000000	334.000000
15345.000000	333.000000
15349.000000	330.000000
15352.000000	326.000000
15356.000000	325.000000
15360.000000	329.000000
15364.000000	332.000000
15367.000000	331.000000
15371.000000	328.000000
15374.000000	327.000000
15378.000000	325.000000
15381.000000	331.000000
15385.000000	335.000000
15388.000000	334.000000
15392.000000	328.000000
15395.000000	325.000000
15398.000000	327.000000
15403.000000	333.000000
15406.000000	334.000000
15410.000000	330.000000
15413.000000	328.000000
15417.000000	328.000000
15420.000000	332.000000
15424.000000	333.000000
15427.000000	331.000000
15431.000000	328.000000
15434.000000	329.000000
15438.000000	330.000000
15441.000000	334.000000
15446.000000	333.000000
15449.000000	332.000000
15453.000000	331.000000
15456.000000	331.000000
15460.000000	332.000000
15463.000000	332.000000
15467.000000	333.000000
15470.000000	330.000000
15474.000000	329.000000
15477.000000	328.000000
15481.000000	333.000000
15484.000000	332.000000
15489.000000	332.000000
15492.000000	333.000000
15496.000000	330.000000
15499.000000	329.000000
15503.000000	334.000000
15506.000000	331.000000
15510.000000	327.000000
15513.000000	327.000000
15517.000000	329.000000
15520.000000	335.000000
15524.000000	336.000000
15527.000000	333.000000
15531.000000	329.000000
15535.000000	329.000000
15538.000000	331.000000
15542.000000	333.000000
15545.000000	330.000000
15549.000000	327.000000
15552.000000	329.000000
15556.000000	332.000000
15559.000000	336.000000
15563.000000	331.000000
15566.000000	326.000000
15570.000000	325.000000
15574.000000	326.000000
15578.000000	324.000000
15581.000000	327.000000
15585.000000	320.000000
15588.000000	318.000000
15592.000000	323.000000
15595.000000	324.000000
15599.000000	324.000000
15602.000000	319.000000
15606.000000	314.000000
15609.000000	305.000000
15613.000000	305.000000
15617.000000	310.000000
15621.000000	318.000000
15624.000000	317.000000
15628.000000	314.000000
15631.000000	316.000000
15635.000000	320.000000
15638.000000	322.000000
15642.000000	325.000000
15645.000000	326.000000
15649.000000	325.000000
15652.000000	328.000000
15656.000000	332.000000
15660.000000	337.000000
15663.000000	339.000000
15667.000000	337.000000
15670.000000	334.000000
15674.000000	335.000000
15677.000000	339.000000
15681.000000	340.000000
15684.000000	336.000000
15688.000000	335.000000
15691.000000	336.000000
15695.000000	333.000000
15698.000000	338.000000
15703.000000	340.000000
15706.000000	339.000000
15710.000000	334.000000
15713.000000	320.000000
15717.000000	306.000000
15720.000000	288.000000
15724.000000	259.000000
15727.000000	221.000000
15731.000000	203.000000
15734.000000	221.000000
15738.000000	256.000000
15741.000000	278.000000
15746.000000	288.000000
15749.000000	296.000000
15752.000000	309.000000
15756.000000	321.000000
15759.000000	332.000000
15763.000000	334.000000
15766.000000	332.000000
15770.000000	330.000000
15773.000000	335.000000
15777.000000	339.000000
15780.000000	344.000000
15784.000000	342.000000
15788.000000	337.000000
15792.000000	336.000000
15795.000000	338.000000
15799.000000	345.000000
15802.000000	348.000000
15806.000000	347.000000
15809.000000	344.000000
15813.000000	343.000000
15816.000000	346.000000
15820.000000	346.000000
15823.000000	342.000000
15827.000000	336.000000
15831.000000	337.000000
15835.000000	336.000000
15838.000000	339.000000
15842.000000	339.000000
15845.000000	339.000000
15849.000000	336.000000
15852.000000	336.000000
15856.000000	344.000000
15859.000000	343.000000
15863.000000	335.000000
15866.000000	330.000000
15870.000000	328.000000
15874.000000	327.000000
15877.000000	333.000000
15881.000000	336.000000
15884.000000	333.000000
15888.000000	329.000000
15891.000000	329.000000
15895.000000	329.000000
15898.000000	334.000000
15902.000000	331.000000
15905.000000	326.000000
15909.000000	323.000000
15912.000000	324.000000
15917.000000	328.000000
15920.000000	331.000000
15924.000000	327.000000
15927.000000	322.000000
15931.000000	322.000000
15934.000000	324.000000
15938.000000	327.000000
15941.000000	326.000000
15945.000000	318.000000
15948.000000	312.000000
15952.000000	312.000000
15955.000000	316.000000
15960.000000	319.000000
15963.000000	318.000000
15967.000000	315.000000
15970.000000	315.000000
15974.000000	314.000000
15977.000000	316.000000
15981.000000	315.000000
15984.000000	311.000000
15988.000000	308.000000
15991.000000	311.000000
15995.000000	313.000000
15998.000000	314.000000
16003.000000	310.000000
16006.000000	304.000000
16009.000000	305.000000
16013.000000	311.000000
16016.000000	318.000000
16020.000000	324.000000
16023.000000	321.000000
16027.000000	312.000000
16030.000000	314.000000
16034.000000	320.000000
16037.000000	327.000000
16041.000000	330.000000
16045.000000	334.000000
16049.000000	327.000000
16052.000000	326.000000
16056.000000	333.000000
16059.000000	338.000000
16063.000000	340.000000
16066.000000	338.000000
16070.000000	341.000000
16073.000000	342.000000
16077.000000	346.000000
16080.000000	346.000000
16084.000000	341.000000
16088.000000	337.000000
16092.000000	342.000000
16095.000000	343.000000
16099.000000	338.000000
16102.000000	333.000000
16106.000000	333.000000
16109.000000	335.000000
16113.000000	338.000000
16116.000000	343.000000
16120.000000	340.000000
16123.000000	341.000000
16128.000000	338.000000
16131.000000	340.000000
16135.000000	344.000000
16138.000000	347.000000
16141.000000	345.000000
16145.000000	336.000000
16148.000000	331.000000
16152.000000	332.000000
16155.000000	340.000000
16159.000000	340.000000
16162.000000	340.000000
16166.000000	338.000000
16169.000000	338.000000
16174.000000	338.000000
16177.000000	344.000000
16181.000000	344.000000
16184.000000	341.000000
16188.000000	339.000000
16191.000000	342.000000
16195.000000	344.000000
16198.000000	344.000000
16202.000000	339.000000
16205.000000	332.000000
16209.000000	335.000000
16212.000000	344.000000
16217.000000	345.000000
16220.000000	349.000000
16224.000000	341.000000
16227.000000	339.000000
16231.000000	342.000000
16234.000000	351.000000
16238.000000	358.000000
16241.000000	347.000000
16245.000000	334.000000
16248.000000	332.000000
16252.000000	337.000000
16256.000000	345.000000
16260.000000	349.000000
16263.000000	348.000000
16267.000000	347.000000
16270.000000	348.000000
16273.000000	345.000000
16277.000000	341.000000
16280.000000	342.000000
16284.000000	339.000000
16287.000000	341.000000
16291.000000	344.000000
16294.000000	348.000000
16299.000000	341.000000
16302.000000	344.000000
16306.000000	344.000000
16309.000000	340.000000
16313.000000	341.000000
16316.000000	347.000000
16320.000000	344.000000
16323.000000	334.000000
16327.000000	333.000000
16330.000000	338.000000
16334.000000	345.000000
16337.000000	340.000000
16342.000000	340.000000
16345.000000	335.000000
16349.000000	336.000000
16352.000000	339.000000
16356.000000	339.000000
16359.000000	336.000000
16363.000000	339.000000
16366.000000	345.000000
16370.000000	335.000000
16373.000000	335.000000
16377.000000	340.000000
16380.000000	333.000000
16385.000000	333.000000
16388.000000	337.000000
16392.000000	330.000000
16395.000000	333.000000
16398.000000	339.000000
16402.000000	338.000000
16405.000000	329.000000
16409.000000	326.000000
16412.000000	333.000000
16416.000000	346.000000
16419.000000	348.000000
