0.000000	292.000000
1.000000	294.000000
1.000000	297.000000
2.000000	300.000000
3.000000	303.000000
3.000000	304.000000
4.000000	306.000000
5.000000	308.000000
6.000000	309.000000
9.000000	307.000000
11.000000	298.000000
13.000000	292.000000
16.000000	291.000000
18.000000	295.000000
21.000000	303.000000
23.000000	305.000000
26.000000	302.000000
28.000000	296.000000
31.000000	289.000000
33.000000	288.000000
36.000000	291.000000
38.000000	299.000000
41.000000	303.000000
44.000000	299.000000
47.000000	294.000000
49.000000	288.000000
52.000000	282.000000
54.000000	279.000000
57.000000	279.000000
59.000000	284.000000
62.000000	294.000000
64.000000	295.000000
67.000000	288.000000
69.000000	279.000000
72.000000	276.000000
74.000000	277.000000
77.000000	281.000000
79.000000	287.000000
82.000000	291.000000
84.000000	287.000000
88.000000	284.000000
90.000000	275.000000
93.000000	271.000000
95.000000	267.000000
98.000000	272.000000
100.000000	279.000000
103.000000	281.000000
106.000000	274.000000
109.000000	267.000000
111.000000	264.000000
114.000000	266.000000
117.000000	269.000000
120.000000	278.000000
123.000000	282.000000
125.000000	273.000000
129.000000	260.000000
132.000000	250.000000
135.000000	251.000000
138.000000	261.000000
141.000000	269.000000
143.000000	263.000000
146.000000	260.000000
149.000000	250.000000
152.000000	247.000000
155.000000	251.000000
158.000000	260.000000
160.000000	264.000000
163.000000	262.000000
166.000000	268.000000
169.000000	262.000000
173.000000	256.000000
175.000000	257.000000
178.000000	265.000000
181.000000	276.000000
184.000000	274.000000
187.000000	272.000000
190.000000	267.000000
192.000000	269.000000
195.000000	273.000000
198.000000	281.000000
201.000000	290.000000
204.000000	289.000000
207.000000	290.000000
209.000000	286.000000
212.000000	285.000000
216.000000	287.000000
219.000000	298.000000
222.000000	306.000000
224.000000	308.000000
227.000000	313.000000
230.000000	310.000000
233.000000	304.000000
236.000000	300.000000
239.000000	308.000000
241.000000	321.000000
244.000000	326.000000
247.000000	323.000000
250.000000	312.000000
253.000000	308.000000
256.000000	315.000000
259.000000	328.000000
262.000000	332.000000
265.000000	326.000000
268.000000	318.000000
271.000000	307.000000
273.000000	306.000000
276.000000	313.000000
279.000000	324.000000
282.000000	328.000000
285.000000	325.000000
288.000000	318.000000
290.000000	313.000000
293.000000	314.000000
296.000000	321.000000
300.000000	327.000000
303.000000	324.000000
305.000000	321.000000
308.000000	315.000000
311.000000	311.000000
314.000000	310.000000
317.000000	314.000000
320.000000	320.000000
322.000000	320.000000
325.000000	319.000000
328.000000	314.000000
331.000000	311.000000
334.000000	306.000000
337.000000	311.000000
339.000000	326.000000
343.000000	326.000000
346.000000	323.000000
349.000000	307.000000
352.000000	302.000000
354.000000	304.000000
357.000000	312.000000
360.000000	319.000000
363.000000	317.000000
366.000000	314.000000
369.000000	306.000000
371.000000	305.000000
374.000000	308.000000
377.000000	320.000000
380.000000	333.000000
384.000000	331.000000
386.000000	323.000000
389.000000	311.000000
392.000000	313.000000
395.000000	316.000000
398.000000	320.000000
401.000000	322.000000
403.000000	323.000000
406.000000	320.000000
409.000000	316.000000
412.000000	313.000000
415.000000	316.000000
418.000000	325.000000
420.000000	329.000000
423.000000	324.000000
427.000000	317.000000
430.000000	314.000000
433.000000	315.000000
435.000000	318.000000
438.000000	329.000000
441.000000	331.000000
444.000000	325.000000
447.000000	320.000000
450.000000	314.000000
452.000000	310.000000
455.000000	310.000000
458.000000	319.000000
461.000000	327.000000
464.000000	327.000000
467.000000	320.000000
470.000000	311.000000
473.000000	309.000000
476.000000	313.000000
479.000000	321.000000
482.000000	320.000000
484.000000	317.000000
487.000000	315.000000
490.000000	315.000000
493.000000	313.000000
496.000000	316.000000
499.000000	327.000000
501.000000	328.000000
504.000000	330.000000
507.000000	322.000000
510.000000	313.000000
514.000000	310.000000
516.000000	313.000000
519.000000	323.000000
522.000000	324.000000
525.000000	320.000000
528.000000	314.000000
531.000000	315.000000
533.000000	321.000000
536.000000	328.000000
539.000000	332.000000
542.000000	322.000000
545.000000	315.000000
548.000000	311.000000
550.000000	312.000000
553.000000	313.000000
557.000000	319.000000
560.000000	326.000000
563.000000	325.000000
565.000000	320.000000
568.000000	309.000000
571.000000	299.000000
574.000000	297.000000
577.000000	305.000000
580.000000	314.000000
582.000000	316.000000
585.000000	310.000000
588.000000	301.000000
591.000000	297.000000
594.000000	295.000000
598.000000	305.000000
600.000000	313.000000
603.000000	310.000000
606.000000	302.000000
609.000000	299.000000
612.000000	298.000000
614.000000	297.000000
617.000000	304.000000
620.000000	303.000000
623.000000	295.000000
626.000000	288.000000
629.000000	289.000000
631.000000	296.000000
634.000000	305.000000
637.000000	318.000000
641.000000	322.000000
644.000000	321.000000
646.000000	315.000000
649.000000	317.000000
652.000000	324.000000
655.000000	335.000000
658.000000	342.000000
661.000000	334.000000
663.000000	329.000000
666.000000	322.000000
669.000000	319.000000
672.000000	317.000000
675.000000	326.000000
678.000000	331.000000
680.000000	327.000000
684.000000	325.000000
687.000000	320.000000
690.000000	319.000000
693.000000	318.000000
695.000000	319.000000
698.000000	310.000000
701.000000	280.000000
704.000000	241.000000
707.000000	193.000000
710.000000	148.000000
712.000000	115.000000
715.000000	96.000000
718.000000	100.000000
721.000000	123.000000
724.000000	166.000000
727.000000	233.000000
730.000000	308.000000
733.000000	367.000000
736.000000	400.000000
739.000000	400.000000
741.000000	374.000000
744.000000	341.000000
747.000000	320.000000
750.000000	312.000000
753.000000	314.000000
756.000000	324.000000
758.000000	329.000000
761.000000	327.000000
764.000000	327.000000
768.000000	328.000000
771.000000	328.000000
774.000000	326.000000
776.000000	329.000000
779.000000	330.000000
782.000000	332.000000
785.000000	330.000000
788.000000	328.000000
790.000000	328.000000
793.000000	328.000000
796.000000	336.000000
799.000000	335.000000
802.000000	329.000000
805.000000	318.000000
807.000000	319.000000
811.000000	324.000000
814.000000	330.000000
817.000000	337.000000
820.000000	331.000000
822.000000	323.000000
825.000000	315.000000
828.000000	313.000000
831.000000	317.000000
834.000000	323.000000
837.000000	328.000000
839.000000	324.000000
842.000000	316.000000
845.000000	311.000000
848.000000	308.000000
851.000000	305.000000
855.000000	312.000000
857.000000	321.000000
860.000000	321.000000
863.000000	315.000000
866.000000	310.000000
869.000000	312.000000
871.000000	315.000000
874.000000	320.000000
877.000000	322.000000
880.000000	317.000000
883.000000	311.000000
886.000000	305.000000
888.000000	305.000000
891.000000	307.000000
894.000000	308.000000
898.000000	307.000000
901.000000	305.000000
904.000000	304.000000
906.000000	300.000000
909.000000	302.000000
912.000000	303.000000
915.000000	308.000000
918.000000	306.000000
920.000000	297.000000
923.000000	288.000000
926.000000	286.000000
929.000000	287.000000
932.000000	289.000000
935.000000	294.000000
937.000000	293.000000
941.000000	291.000000
944.000000	285.000000
947.000000	285.000000
950.000000	290.000000
952.000000	291.000000
955.000000	296.000000
958.000000	296.000000
961.000000	293.000000
964.000000	287.000000
967.000000	285.000000
969.000000	283.000000
972.000000	278.000000
975.000000	287.000000
978.000000	295.000000
982.000000	297.000000
985.000000	291.000000
987.000000	288.000000
990.000000	288.000000
993.000000	298.000000
996.000000	312.000000
999.000000	314.000000
1002.000000	310.000000
1005.000000	299.000000
1008.000000	299.000000
1011.000000	311.000000
1014.000000	329.000000
1017.000000	335.000000
1021.000000	335.000000
1025.000000	329.000000
1028.000000	328.000000
1031.000000	323.000000
1034.000000	326.000000
1037.000000	330.000000
1040.000000	335.000000
1044.000000	336.000000
1047.000000	339.000000
1050.000000	342.000000
1053.000000	350.000000
1056.000000	357.000000
1059.000000	352.000000
1063.000000	343.000000
1067.000000	339.000000
1070.000000	339.000000
1073.000000	344.000000
1076.000000	351.000000
1079.000000	353.000000
1082.000000	352.000000
1086.000000	349.000000
1089.000000	346.000000
1092.000000	349.000000
1095.000000	356.000000
1098.000000	352.000000
1101.000000	349.000000
1105.000000	341.000000
1108.000000	336.000000
1112.000000	339.000000
1115.000000	350.000000
1118.000000	350.000000
1121.000000	346.000000
1124.000000	336.000000
1128.000000	335.000000
1131.000000	338.000000
1134.000000	346.000000
1137.000000	347.000000
1140.000000	343.000000
1143.000000	333.000000
1147.000000	329.000000
1150.000000	331.000000
1154.000000	342.000000
1157.000000	348.000000
1160.000000	347.000000
1163.000000	337.000000
1167.000000	332.000000
1170.000000	335.000000
1173.000000	344.000000
1176.000000	341.000000
1179.000000	336.000000
1182.000000	332.000000
1185.000000	332.000000
1189.000000	335.000000
1192.000000	344.000000
1196.000000	352.000000
1199.000000	346.000000
1202.000000	333.000000
1205.000000	326.000000
1209.000000	330.000000
1212.000000	342.000000
1215.000000	350.000000
1218.000000	343.000000
1221.000000	336.000000
1224.000000	329.000000
1227.000000	334.000000
1231.000000	340.000000
1234.000000	346.000000
1238.000000	343.000000
1241.000000	340.000000
1244.000000	335.000000
1247.000000	332.000000
1251.000000	332.000000
1254.000000	341.000000
1257.000000	339.000000
1260.000000	338.000000
1263.000000	333.000000
1266.000000	330.000000
1269.000000	331.000000
1273.000000	340.000000
1276.000000	340.000000
1280.000000	333.000000
1283.000000	331.000000
1286.000000	339.000000
1289.000000	339.000000
1293.000000	341.000000
1296.000000	341.000000
1299.000000	336.000000
1302.000000	329.000000
1305.000000	329.000000
1308.000000	329.000000
1311.000000	339.000000
1315.000000	345.000000
1318.000000	341.000000
1321.000000	329.000000
1325.000000	324.000000
1328.000000	324.000000
1331.000000	335.000000
1335.000000	340.000000
1338.000000	335.000000
1341.000000	326.000000
1344.000000	317.000000
1347.000000	318.000000
1350.000000	326.000000
1353.000000	336.000000
1357.000000	336.000000
1360.000000	327.000000
1363.000000	316.000000
1367.000000	315.000000
1370.000000	321.000000
1373.000000	327.000000
1377.000000	326.000000
1380.000000	321.000000
1383.000000	312.000000
1386.000000	309.000000
1389.000000	314.000000
1392.000000	327.000000
1395.000000	325.000000
1399.000000	311.000000
1402.000000	296.000000
1405.000000	295.000000
1409.000000	296.000000
1412.000000	309.000000
1415.000000	312.000000
1419.000000	314.000000
1422.000000	308.000000
1425.000000	311.000000
1428.000000	319.000000
1431.000000	334.000000
1434.000000	343.000000
1437.000000	340.000000
1441.000000	333.000000
1444.000000	331.000000
1447.000000	335.000000
1451.000000	338.000000
1454.000000	340.000000
1457.000000	339.000000
1461.000000	336.000000
1464.000000	329.000000
1467.000000	328.000000
1470.000000	334.000000
1473.000000	343.000000
1476.000000	344.000000
1479.000000	340.000000
1483.000000	337.000000
1486.000000	335.000000
1489.000000	325.000000
1492.000000	305.000000
1496.000000	263.000000
1499.000000	214.000000
1503.000000	161.000000
1506.000000	112.000000
1509.000000	87.000000
1512.000000	103.000000
1515.000000	139.000000
1518.000000	208.000000
1521.000000	289.000000
1524.000000	356.000000
1528.000000	394.000000
1531.000000	404.000000
1534.000000	388.000000
1538.000000	366.000000
1541.000000	342.000000
1544.000000	332.000000
1548.000000	330.000000
1551.000000	340.000000
1554.000000	349.000000
1557.000000	351.000000
1560.000000	347.000000
1563.000000	340.000000
1566.000000	338.000000
1570.000000	344.000000
1573.000000	354.000000
1576.000000	351.000000
1580.000000	342.000000
1583.000000	336.000000
1586.000000	333.000000
1590.000000	338.000000
1593.000000	348.000000
1596.000000	347.000000
1599.000000	337.000000
1602.000000	331.000000
1605.000000	333.000000
1608.000000	335.000000
1612.000000	338.000000
1615.000000	337.000000
1618.000000	338.000000
1622.000000	335.000000
1625.000000	335.000000
1628.000000	335.000000
1632.000000	341.000000
1635.000000	338.000000
1638.000000	331.000000
1641.000000	321.000000
1644.000000	317.000000
1647.000000	319.000000
1650.000000	331.000000
1654.000000	334.000000
1657.000000	332.000000
1660.000000	321.000000
1664.000000	318.000000
1667.000000	316.000000
1670.000000	323.000000
1674.000000	325.000000
1677.000000	322.000000
1680.000000	316.000000
1683.000000	313.000000
1686.000000	315.000000
1689.000000	324.000000
1692.000000	324.000000
1696.000000	312.000000
1699.000000	301.000000
1702.000000	292.000000
1705.000000	290.000000
1709.000000	300.000000
1712.000000	310.000000
1716.000000	309.000000
1719.000000	303.000000
1722.000000	297.000000
1725.000000	289.000000
1728.000000	289.000000
1731.000000	297.000000
1734.000000	300.000000
1738.000000	297.000000
1741.000000	296.000000
1744.000000	291.000000
1747.000000	288.000000
1751.000000	294.000000
1754.000000	291.000000
1758.000000	287.000000
1761.000000	280.000000
1764.000000	279.000000
1767.000000	286.000000
1770.000000	295.000000
1773.000000	297.000000
1776.000000	291.000000
1780.000000	284.000000
1783.000000	286.000000
1786.000000	292.000000
1789.000000	302.000000
1793.000000	313.000000
1796.000000	310.000000
1800.000000	305.000000
1803.000000	310.000000
1806.000000	319.000000
1809.000000	332.000000
1812.000000	332.000000
1815.000000	324.000000
1819.000000	317.000000
1822.000000	320.000000
1825.000000	322.000000
1828.000000	334.000000
1831.000000	344.000000
1835.000000	341.000000
1838.000000	337.000000
1842.000000	335.000000
1845.000000	340.000000
1848.000000	351.000000
1851.000000	355.000000
1854.000000	348.000000
1857.000000	338.000000
1861.000000	332.000000
1864.000000	336.000000
1867.000000	342.000000
1870.000000	349.000000
1873.000000	348.000000
1876.000000	346.000000
1880.000000	344.000000
1884.000000	341.000000
1887.000000	344.000000
1890.000000	355.000000
1893.000000	352.000000
1896.000000	346.000000
1899.000000	339.000000
1903.000000	334.000000
1906.000000	334.000000
1909.000000	343.000000
1912.000000	343.000000
1915.000000	338.000000
1918.000000	333.000000
1922.000000	332.000000
1926.000000	335.000000
1929.000000	344.000000
1932.000000	348.000000
1935.000000	343.000000
1938.000000	334.000000
1941.000000	329.000000
1945.000000	329.000000
1948.000000	335.000000
1951.000000	342.000000
1954.000000	341.000000
1957.000000	331.000000
1960.000000	331.000000
1964.000000	329.000000
1968.000000	335.000000
1971.000000	344.000000
1974.000000	342.000000
1977.000000	337.000000
1980.000000	329.000000
1983.000000	327.000000
1987.000000	331.000000
1990.000000	343.000000
1993.000000	340.000000
1996.000000	335.000000
1999.000000	330.000000
2002.000000	331.000000
2006.000000	337.000000
2010.000000	345.000000
2013.000000	340.000000
2016.000000	334.000000
2019.000000	328.000000
2022.000000	326.000000
2025.000000	330.000000
2029.000000	338.000000
2032.000000	338.000000
2035.000000	339.000000
2038.000000	332.000000
2041.000000	328.000000
2044.000000	327.000000
2048.000000	339.000000
2052.000000	346.000000
2055.000000	343.000000
2058.000000	330.000000
2061.000000	324.000000
2064.000000	326.000000
2067.000000	338.000000
2071.000000	340.000000
2074.000000	339.000000
2077.000000	334.000000
2080.000000	328.000000
2083.000000	325.000000
2086.000000	334.000000
2089.000000	347.000000
2094.000000	345.000000
2097.000000	333.000000
2100.000000	327.000000
2103.000000	325.000000
2106.000000	331.000000
2109.000000	338.000000
2113.000000	335.000000
2116.000000	331.000000
2119.000000	329.000000
2122.000000	325.000000
2125.000000	330.000000
2128.000000	343.000000
2131.000000	336.000000
2136.000000	330.000000
2139.000000	324.000000
2142.000000	324.000000
2145.000000	333.000000
2148.000000	340.000000
2151.000000	334.000000
2155.000000	328.000000
2158.000000	310.000000
2161.000000	304.000000
2164.000000	310.000000
2167.000000	323.000000
2170.000000	322.000000
2173.000000	314.000000
2178.000000	310.000000
2181.000000	316.000000
2184.000000	321.000000
2187.000000	324.000000
2190.000000	319.000000
2193.000000	308.000000
2197.000000	298.000000
2200.000000	300.000000
2203.000000	302.000000
2206.000000	310.000000
2209.000000	321.000000
2212.000000	328.000000
2215.000000	330.000000
2220.000000	335.000000
2223.000000	332.000000
2226.000000	341.000000
2229.000000	347.000000
2232.000000	347.000000
2235.000000	341.000000
2239.000000	333.000000
2242.000000	332.000000
2245.000000	341.000000
2248.000000	349.000000
2251.000000	348.000000
2254.000000	345.000000
2257.000000	336.000000
2262.000000	333.000000
2265.000000	334.000000
2268.000000	344.000000
2271.000000	338.000000
2274.000000	320.000000
2277.000000	289.000000
2281.000000	257.000000
2284.000000	224.000000
2287.000000	193.000000
2290.000000	145.000000
2293.000000	108.000000
2296.000000	105.000000
2299.000000	138.000000
2304.000000	206.000000
2307.000000	297.000000
2310.000000	372.000000
2313.000000	408.000000
2316.000000	403.000000
2319.000000	382.000000
2323.000000	360.000000
2326.000000	355.000000
2329.000000	352.000000
2332.000000	348.000000
2335.000000	337.000000
2338.000000	335.000000
2341.000000	335.000000
2345.000000	346.000000
2349.000000	349.000000
2352.000000	345.000000
2355.000000	339.000000
2358.000000	335.000000
2361.000000	336.000000
2365.000000	343.000000
2368.000000	348.000000
2371.000000	347.000000
2374.000000	343.000000
2377.000000	335.000000
2380.000000	329.000000
2384.000000	332.000000
2387.000000	338.000000
2391.000000	338.000000
2394.000000	337.000000
2397.000000	334.000000
2400.000000	328.000000
2403.000000	327.000000
2407.000000	340.000000
2410.000000	338.000000
2413.000000	329.000000
2416.000000	320.000000
2419.000000	318.000000
2422.000000	323.000000
2426.000000	337.000000
2429.000000	335.000000
2433.000000	327.000000
2436.000000	316.000000
2439.000000	314.000000
2442.000000	318.000000
2445.000000	328.000000
2449.000000	331.000000
2452.000000	326.000000
2455.000000	318.000000
2458.000000	312.000000
2461.000000	310.000000
2464.000000	316.000000
2468.000000	326.000000
2471.000000	323.000000
2475.000000	310.000000
2478.000000	302.000000
2481.000000	300.000000
2484.000000	310.000000
2487.000000	317.000000
2491.000000	313.000000
2494.000000	300.000000
2497.000000	293.000000
2500.000000	294.000000
2503.000000	300.000000
2506.000000	306.000000
2510.000000	302.000000
2513.000000	299.000000
2516.000000	290.000000
2520.000000	281.000000
2523.000000	286.000000
2526.000000	295.000000
2529.000000	290.000000
2533.000000	285.000000
2536.000000	282.000000
2539.000000	282.000000
2542.000000	291.000000
2545.000000	300.000000
2548.000000	297.000000
2552.000000	291.000000
2555.000000	279.000000
2558.000000	276.000000
2562.000000	279.000000
2565.000000	293.000000
2568.000000	299.000000
2571.000000	301.000000
2575.000000	293.000000
2578.000000	290.000000
2581.000000	293.000000
2584.000000	312.000000
2587.000000	326.000000
2590.000000	331.000000
2594.000000	323.000000
2597.000000	315.000000
2600.000000	316.000000
2604.000000	329.000000
2607.000000	338.000000
2610.000000	339.000000
2613.000000	335.000000
2617.000000	332.000000
2620.000000	335.000000
2623.000000	342.000000
2626.000000	349.000000
2629.000000	346.000000
2632.000000	344.000000
2636.000000	340.000000
2639.000000	336.000000
2642.000000	341.000000
2646.000000	352.000000
2649.000000	349.000000
2652.000000	343.000000
2655.000000	334.000000
2659.000000	335.000000
2662.000000	341.000000
2665.000000	349.000000
2668.000000	351.000000
2671.000000	349.000000
2674.000000	340.000000
2678.000000	333.000000
2681.000000	333.000000
2684.000000	344.000000
2688.000000	346.000000
2691.000000	346.000000
2694.000000	340.000000
2697.000000	332.000000
2701.000000	331.000000
2704.000000	338.000000
2707.000000	341.000000
2710.000000	344.000000
2713.000000	336.000000
2716.000000	328.000000
2720.000000	329.000000
2723.000000	337.000000
2726.000000	340.000000
2729.000000	338.000000
2733.000000	328.000000
2736.000000	323.000000
2739.000000	329.000000
2743.000000	339.000000
2746.000000	343.000000
2749.000000	338.000000
2752.000000	332.000000
2755.000000	331.000000
2758.000000	335.000000
2762.000000	340.000000
2765.000000	341.000000
2768.000000	334.000000
2771.000000	330.000000
2775.000000	325.000000
2778.000000	327.000000
2781.000000	334.000000
2785.000000	345.000000
2788.000000	340.000000
2791.000000	337.000000
2794.000000	332.000000
2797.000000	330.000000
2800.000000	335.000000
2804.000000	346.000000
2807.000000	344.000000
2810.000000	338.000000
2813.000000	326.000000
2817.000000	323.000000
2820.000000	330.000000
2823.000000	341.000000
2827.000000	343.000000
2830.000000	343.000000
2833.000000	334.000000
2836.000000	333.000000
2839.000000	334.000000
2842.000000	339.000000
2846.000000	342.000000
2849.000000	335.000000
2852.000000	326.000000
2855.000000	326.000000
2859.000000	332.000000
2862.000000	342.000000
2865.000000	341.000000
2869.000000	334.000000
2872.000000	328.000000
2875.000000	326.000000
2878.000000	330.000000
2881.000000	339.000000
2884.000000	344.000000
2888.000000	339.000000
2891.000000	332.000000
2894.000000	325.000000
2897.000000	326.000000
2900.000000	334.000000
2904.000000	340.000000
2908.000000	339.000000
2911.000000	334.000000
2914.000000	327.000000
2917.000000	326.000000
2920.000000	331.000000
2923.000000	341.000000
2926.000000	340.000000
2930.000000	332.000000
2933.000000	322.000000
2936.000000	320.000000
2939.000000	322.000000
2942.000000	328.000000
2946.000000	323.000000
2950.000000	320.000000
2953.000000	314.000000
2956.000000	315.000000
2959.000000	318.000000
2962.000000	326.000000
2965.000000	323.000000
2968.000000	319.000000
2972.000000	310.000000
2975.000000	302.000000
2978.000000	302.000000
2981.000000	313.000000
2984.000000	316.000000
2988.000000	311.000000
2992.000000	305.000000
2995.000000	310.000000
2998.000000	320.000000
3001.000000	332.000000
3004.000000	340.000000
3007.000000	340.000000
3010.000000	336.000000
3014.000000	333.000000
3017.000000	332.000000
3020.000000	340.000000
3023.000000	346.000000
3026.000000	343.000000
3030.000000	338.000000
3034.000000	333.000000
3037.000000	328.000000
3040.000000	332.000000
3043.000000	342.000000
3046.000000	340.000000
3049.000000	335.000000
3052.000000	326.000000
3056.000000	317.000000
3059.000000	302.000000
3062.000000	280.000000
3065.000000	241.000000
3068.000000	194.000000
3072.000000	138.000000
3076.000000	98.000000
3079.000000	94.000000
3082.000000	125.000000
3085.000000	181.000000
3088.000000	260.000000
3091.000000	330.000000
3094.000000	383.000000
3097.000000	399.000000
3100.000000	396.000000
3104.000000	379.000000
3107.000000	357.000000
3110.000000	338.000000
3113.000000	329.000000
3117.000000	327.000000
3120.000000	336.000000
3124.000000	346.000000
3127.000000	348.000000
3130.000000	344.000000
3133.000000	336.000000
3136.000000	332.000000
3139.000000	338.000000
3142.000000	347.000000
3146.000000	344.000000
3149.000000	336.000000
3152.000000	326.000000
3155.000000	326.000000
3159.000000	336.000000
3162.000000	348.000000
3166.000000	341.000000
3169.000000	335.000000
3172.000000	330.000000
3175.000000	332.000000
3178.000000	335.000000
3181.000000	342.000000
3184.000000	338.000000
3188.000000	333.000000
3191.000000	327.000000
3194.000000	326.000000
3197.000000	323.000000
3201.000000	330.000000
3204.000000	329.000000
3208.000000	327.000000
3211.000000	319.000000
3214.000000	322.000000
3217.000000	325.000000
3220.000000	330.000000
3223.000000	329.000000
3226.000000	323.000000
3230.000000	313.000000
3233.000000	309.000000
3236.000000	315.000000
3239.000000	327.000000
3243.000000	328.000000
3246.000000	319.000000
3250.000000	306.000000
3253.000000	304.000000
3256.000000	307.000000
3259.000000	314.000000
3262.000000	316.000000
3265.000000	313.000000
3268.000000	308.000000
3272.000000	305.000000
3275.000000	303.000000
3278.000000	304.000000
3281.000000	309.000000
3284.000000	309.000000
3288.000000	304.000000
3292.000000	294.000000
3295.000000	288.000000
3298.000000	290.000000
3301.000000	300.000000
3304.000000	296.000000
3307.000000	288.000000
3310.000000	284.000000
3314.000000	286.000000
3317.000000	291.000000
3320.000000	299.000000
3323.000000	297.000000
3326.000000	291.000000
3330.000000	282.000000
3334.000000	278.000000
3337.000000	281.000000
3340.000000	293.000000
3343.000000	299.000000
3346.000000	302.000000
3349.000000	291.000000
3352.000000	289.000000
3356.000000	295.000000
3359.000000	307.000000
3362.000000	315.000000
3365.000000	314.000000
3368.000000	308.000000
3372.000000	309.000000
3376.000000	310.000000
3379.000000	320.000000
3382.000000	331.000000
3385.000000	339.000000
3388.000000	338.000000
3391.000000	330.000000
3394.000000	331.000000
3398.000000	344.000000
3401.000000	348.000000
3404.000000	342.000000
3407.000000	336.000000
3410.000000	333.000000
3414.000000	335.000000
3418.000000	343.000000
3421.000000	352.000000
3424.000000	349.000000
3427.000000	345.000000
3430.000000	345.000000
3433.000000	339.000000
3436.000000	340.000000
3440.000000	354.000000
3443.000000	354.000000
3446.000000	348.000000
3449.000000	339.000000
3452.000000	336.000000
3456.000000	338.000000
3460.000000	349.000000
3463.000000	350.000000
3466.000000	340.000000
3469.000000	330.000000
3472.000000	331.000000
3475.000000	336.000000
3478.000000	345.000000
3482.000000	348.000000
3485.000000	346.000000
3488.000000	336.000000
3491.000000	333.000000
3494.000000	334.000000
3497.000000	341.000000
3502.000000	348.000000
3505.000000	350.000000
3508.000000	341.000000
3511.000000	332.000000
3514.000000	328.000000
3517.000000	333.000000
3520.000000	342.000000
3524.000000	338.000000
3527.000000	334.000000
3530.000000	330.000000
3533.000000	329.000000
3536.000000	337.000000
3539.000000	349.000000
3544.000000	347.000000
3547.000000	337.000000
3550.000000	326.000000
3553.000000	326.000000
3556.000000	331.000000
3559.000000	337.000000
3562.000000	341.000000
3566.000000	341.000000
3569.000000	334.000000
3572.000000	330.000000
3575.000000	333.000000
3578.000000	347.000000
3581.000000	347.000000
3586.000000	341.000000
3589.000000	332.000000
3592.000000	332.000000
3595.000000	335.000000
3598.000000	343.000000
3601.000000	345.000000
3604.000000	344.000000
3608.000000	335.000000
3611.000000	332.000000
3614.000000	333.000000
3617.000000	341.000000
3620.000000	345.000000
3623.000000	343.000000
3628.000000	334.000000
3631.000000	327.000000
3634.000000	324.000000
3637.000000	333.000000
3640.000000	341.000000
3643.000000	346.000000
3647.000000	343.000000
3650.000000	331.000000
3653.000000	326.000000
3656.000000	333.000000
3659.000000	340.000000
3662.000000	338.000000
3665.000000	331.000000
3670.000000	325.000000
3673.000000	329.000000
3676.000000	338.000000
3679.000000	349.000000
3682.000000	346.000000
3685.000000	337.000000
3689.000000	325.000000
3692.000000	324.000000
3695.000000	330.000000
3698.000000	340.000000
3701.000000	338.000000
3704.000000	331.000000
3707.000000	322.000000
3712.000000	323.000000
3715.000000	324.000000
3718.000000	333.000000
3721.000000	333.000000
3724.000000	328.000000
3727.000000	322.000000
3731.000000	321.000000
3734.000000	320.000000
3737.000000	327.000000
3740.000000	326.000000
3743.000000	321.000000
3746.000000	313.000000
3749.000000	312.000000
3753.000000	316.000000
3757.000000	324.000000
3760.000000	321.000000
3763.000000	310.000000
3766.000000	303.000000
3769.000000	301.000000
3773.000000	301.000000
3776.000000	307.000000
3779.000000	312.000000
3782.000000	310.000000
3785.000000	308.000000
3788.000000	308.000000
3791.000000	314.000000
3795.000000	324.000000
3799.000000	337.000000
3802.000000	337.000000
3805.000000	334.000000
3808.000000	331.000000
3811.000000	333.000000
3815.000000	338.000000
3818.000000	343.000000
3821.000000	339.000000
3824.000000	334.000000
3827.000000	325.000000
3830.000000	324.000000
3833.000000	328.000000
3837.000000	340.000000
3841.000000	343.000000
3844.000000	338.000000
3847.000000	329.000000
3850.000000	325.000000
3853.000000	317.000000
3857.000000	300.000000
3860.000000	266.000000
3863.000000	221.000000
3866.000000	167.000000
3869.000000	113.000000
3872.000000	84.000000
3875.000000	103.000000
3878.000000	154.000000
3883.000000	224.000000
3886.000000	298.000000
3889.000000	359.000000
3892.000000	384.000000
3895.000000	385.000000
3898.000000	372.000000
3902.000000	349.000000
3905.000000	331.000000
3908.000000	321.000000
3911.000000	326.000000
3914.000000	334.000000
3917.000000	342.000000
3920.000000	342.000000
3924.000000	337.000000
3928.000000	331.000000
3931.000000	330.000000
3934.000000	339.000000
3937.000000	348.000000
3940.000000	343.000000
3944.000000	334.000000
3947.000000	328.000000
3950.000000	329.000000
3953.000000	332.000000
3956.000000	336.000000
3959.000000	341.000000
3962.000000	343.000000
3966.000000	335.000000
3970.000000	329.000000
3973.000000	330.000000
3976.000000	335.000000
3979.000000	334.000000
3982.000000	331.000000
3986.000000	323.000000
3989.000000	322.000000
3992.000000	325.000000
3995.000000	334.000000
3998.000000	336.000000
4001.000000	331.000000
4004.000000	320.000000
4008.000000	314.000000
4012.000000	316.000000
4015.000000	325.000000
4018.000000	330.000000
4021.000000	324.000000
4024.000000	315.000000
4028.000000	313.000000
4031.000000	313.000000
4034.000000	316.000000
4037.000000	323.000000
4040.000000	325.000000
4043.000000	316.000000
4046.000000	310.000000
4050.000000	305.000000
4054.000000	308.000000
4057.000000	318.000000
4060.000000	317.000000
4063.000000	316.000000
4066.000000	308.000000
4070.000000	300.000000
4073.000000	297.000000
4076.000000	302.000000
4079.000000	299.000000
4082.000000	296.000000
4085.000000	287.000000
4088.000000	286.000000
4092.000000	287.000000
4096.000000	296.000000
4099.000000	297.000000
4102.000000	293.000000
4105.000000	287.000000
4108.000000	285.000000
4112.000000	281.000000
4115.000000	282.000000
4118.000000	282.000000
4121.000000	284.000000
4124.000000	278.000000
4127.000000	280.000000
4130.000000	284.000000
4134.000000	294.000000
4137.000000	298.000000
4141.000000	294.000000
4144.000000	286.000000
4147.000000	284.000000
4150.000000	289.000000
4154.000000	301.000000
4157.000000	313.000000
4160.000000	312.000000
4163.000000	303.000000
4166.000000	298.000000
4169.000000	303.000000
4172.000000	318.000000
4176.000000	330.000000
4179.000000	332.000000
4183.000000	325.000000
4186.000000	318.000000
4189.000000	320.000000
4192.000000	330.000000
4196.000000	345.000000
4199.000000	342.000000
4202.000000	336.000000
4205.000000	331.000000
4208.000000	334.000000
4211.000000	339.000000
4214.000000	349.000000
4218.000000	349.000000
4221.000000	344.000000
4225.000000	338.000000
4228.000000	338.000000
4231.000000	337.000000
4234.000000	342.000000
4238.000000	343.000000
4241.000000	343.000000
4244.000000	335.000000
4247.000000	335.000000
4250.000000	335.000000
4253.000000	344.000000
4256.000000	346.000000
4260.000000	344.000000
4263.000000	336.000000
4267.000000	331.000000
4270.000000	332.000000
4273.000000	339.000000
4276.000000	348.000000
4280.000000	342.000000
4283.000000	333.000000
4286.000000	329.000000
4289.000000	328.000000
4292.000000	334.000000
4295.000000	347.000000
4299.000000	346.000000
4302.000000	337.000000
4305.000000	329.000000
4308.000000	329.000000
4312.000000	335.000000
4315.000000	340.000000
4318.000000	336.000000
4322.000000	330.000000
4325.000000	322.000000
4328.000000	321.000000
4331.000000	330.000000
4334.000000	343.000000
4337.000000	345.000000
4341.000000	340.000000
4344.000000	329.000000
4347.000000	328.000000
4350.000000	331.000000
4354.000000	337.000000
4357.000000	332.000000
4360.000000	329.000000
4364.000000	324.000000
4367.000000	325.000000
4370.000000	325.000000
4373.000000	337.000000
4376.000000	337.000000
4379.000000	331.000000
4383.000000	324.000000
4386.000000	327.000000
4389.000000	333.000000
4392.000000	342.000000
4396.000000	342.000000
4399.000000	336.000000
4402.000000	329.000000
4406.000000	324.000000
4409.000000	324.000000
4412.000000	335.000000
4415.000000	339.000000
4418.000000	334.000000
4421.000000	325.000000
4425.000000	319.000000
4428.000000	322.000000
4431.000000	329.000000
4434.000000	338.000000
4438.000000	335.000000
4441.000000	331.000000
4444.000000	326.000000
4448.000000	327.000000
4451.000000	333.000000
4454.000000	344.000000
4457.000000	340.000000
4460.000000	330.000000
4463.000000	319.000000
4467.000000	318.000000
4470.000000	325.000000
4473.000000	338.000000
4476.000000	337.000000
4480.000000	330.000000
4483.000000	318.000000
4486.000000	321.000000
4490.000000	325.000000
4493.000000	332.000000
4496.000000	329.000000
4499.000000	326.000000
4502.000000	320.000000
4505.000000	318.000000
4509.000000	320.000000
4512.000000	329.000000
4515.000000	330.000000
4518.000000	327.000000
4521.000000	325.000000
4525.000000	323.000000
4528.000000	322.000000
4532.000000	329.000000
4535.000000	333.000000
4538.000000	326.000000
4541.000000	315.000000
4544.000000	309.000000
4547.000000	310.000000
4551.000000	323.000000
4554.000000	334.000000
4557.000000	329.000000
4560.000000	319.000000
4563.000000	315.000000
4567.000000	313.000000
4570.000000	314.000000
4574.000000	320.000000
4577.000000	318.000000
4580.000000	313.000000
4583.000000	304.000000
4586.000000	300.000000
4589.000000	305.000000
4593.000000	315.000000
4596.000000	312.000000
4599.000000	303.000000
4602.000000	294.000000
4605.000000	294.000000
4609.000000	299.000000
4612.000000	313.000000
4616.000000	313.000000
4619.000000	315.000000
4622.000000	313.000000
4625.000000	312.000000
4628.000000	316.000000
4631.000000	333.000000
4635.000000	339.000000
4638.000000	334.000000
4641.000000	323.000000
4644.000000	323.000000
4647.000000	324.000000
4651.000000	333.000000
4654.000000	337.000000
4658.000000	337.000000
4661.000000	325.000000
4664.000000	321.000000
4667.000000	324.000000
4670.000000	332.000000
4673.000000	338.000000
4677.000000	335.000000
4680.000000	319.000000
4683.000000	295.000000
4686.000000	261.000000
4689.000000	227.000000
4692.000000	194.000000
4696.000000	147.000000
4700.000000	102.000000
4703.000000	87.000000
4706.000000	108.000000
4709.000000	163.000000
4712.000000	250.000000
4715.000000	328.000000
4718.000000	379.000000
4722.000000	386.000000
4725.000000	373.000000
4728.000000	359.000000
4731.000000	351.000000
4734.000000	340.000000
4738.000000	335.000000
4741.000000	328.000000
4745.000000	325.000000
4748.000000	329.000000
4751.000000	338.000000
4754.000000	341.000000
4757.000000	340.000000
4760.000000	332.000000
4764.000000	330.000000
4767.000000	329.000000
4770.000000	335.000000
4773.000000	339.000000
4776.000000	336.000000
4780.000000	330.000000
4783.000000	326.000000
4787.000000	327.000000
4790.000000	334.000000
4793.000000	340.000000
4796.000000	333.000000
4799.000000	326.000000
4802.000000	322.000000
4806.000000	322.000000
4809.000000	325.000000
4812.000000	331.000000
4815.000000	328.000000
4818.000000	321.000000
4822.000000	316.000000
4825.000000	318.000000
4829.000000	327.000000
4832.000000	333.000000
4835.000000	334.000000
4838.000000	328.000000
4841.000000	316.000000
4844.000000	313.000000
4848.000000	318.000000
4851.000000	328.000000
4854.000000	323.000000
4857.000000	316.000000
4860.000000	308.000000
4864.000000	306.000000
4867.000000	311.000000
4871.000000	323.000000
4874.000000	319.000000
4877.000000	311.000000
4880.000000	302.000000
4883.000000	304.000000
4886.000000	306.000000
4890.000000	311.000000
4893.000000	307.000000
4896.000000	302.000000
4899.000000	292.000000
4902.000000	294.000000
4905.000000	296.000000
4910.000000	302.000000
4913.000000	307.000000
4916.000000	303.000000
4919.000000	294.000000
4922.000000	292.000000
4925.000000	294.000000
4928.000000	300.000000
4932.000000	305.000000
4935.000000	300.000000
4938.000000	286.000000
4941.000000	277.000000
4944.000000	277.000000
4947.000000	286.000000
4952.000000	295.000000
4955.000000	294.000000
4958.000000	287.000000
4961.000000	281.000000
4964.000000	279.000000
4967.000000	285.000000
4970.000000	298.000000
4974.000000	301.000000
4977.000000	301.000000
4980.000000	291.000000
4983.000000	289.000000
4986.000000	298.000000
4989.000000	312.000000
4994.000000	318.000000
4997.000000	314.000000
5000.000000	306.000000
5003.000000	310.000000
5006.000000	321.000000
5009.000000	338.000000
5012.000000	343.000000
5016.000000	339.000000
5019.000000	331.000000
5022.000000	328.000000
5025.000000	331.000000
5028.000000	340.000000
5031.000000	345.000000
5036.000000	344.000000
5039.000000	337.000000
5042.000000	336.000000
5045.000000	341.000000
5048.000000	350.000000
5051.000000	355.000000
5054.000000	355.000000
5058.000000	345.000000
5061.000000	339.000000
5064.000000	339.000000
5067.000000	345.000000
5070.000000	345.000000
5073.000000	340.000000
5078.000000	339.000000
5081.000000	336.000000
5084.000000	339.000000
5087.000000	342.000000
5090.000000	348.000000
5093.000000	346.000000
5096.000000	339.000000
5100.000000	329.000000
5103.000000	333.000000
5106.000000	342.000000
5109.000000	346.000000
5112.000000	343.000000
5115.000000	342.000000
5120.000000	334.000000
5123.000000	328.000000
5126.000000	331.000000
5129.000000	345.000000
5132.000000	346.000000
5135.000000	341.000000
5138.000000	330.000000
5142.000000	329.000000
5145.000000	330.000000
5148.000000	337.000000
5151.000000	340.000000
5154.000000	337.000000
5157.000000	331.000000
5161.000000	332.000000
5165.000000	335.000000
5168.000000	343.000000
5171.000000	344.000000
5174.000000	341.000000
5177.000000	333.000000
5180.000000	326.000000
5184.000000	326.000000
5187.000000	338.000000
5190.000000	348.000000
5193.000000	344.000000
5196.000000	327.000000
5199.000000	319.000000
5203.000000	329.000000
5207.000000	343.000000
5210.000000	350.000000
5213.000000	344.000000
5216.000000	332.000000
5219.000000	330.000000
5222.000000	335.000000
5226.000000	341.000000
5229.000000	348.000000
5232.000000	344.000000
5235.000000	337.000000
5238.000000	330.000000
5241.000000	331.000000
5245.000000	336.000000
5249.000000	346.000000
5252.000000	346.000000
5255.000000	342.000000
5258.000000	333.000000
5261.000000	330.000000
5264.000000	331.000000
5268.000000	339.000000
5271.000000	341.000000
5274.000000	345.000000
5277.000000	337.000000
5280.000000	329.000000
5283.000000	331.000000
5287.000000	343.000000
5291.000000	345.000000
5294.000000	341.000000
5297.000000	334.000000
5300.000000	331.000000
5303.000000	331.000000
5306.000000	337.000000
5310.000000	337.000000
5313.000000	334.000000
5316.000000	330.000000
5319.000000	329.000000
5322.000000	333.000000
5325.000000	338.000000
5329.000000	338.000000
5332.000000	337.000000
5336.000000	334.000000
5339.000000	331.000000
5342.000000	329.000000
5345.000000	335.000000
5348.000000	346.000000
5352.000000	340.000000
5355.000000	330.000000
5358.000000	324.000000
5361.000000	324.000000
5364.000000	329.000000
5367.000000	343.000000
5371.000000	343.000000
5374.000000	340.000000
5378.000000	336.000000
5381.000000	331.000000
5384.000000	330.000000
5387.000000	338.000000
5390.000000	340.000000
5394.000000	338.000000
5397.000000	329.000000
5400.000000	329.000000
5403.000000	332.000000
5406.000000	332.000000
5409.000000	323.000000
5413.000000	322.000000
5416.000000	322.000000
5420.000000	324.000000
5423.000000	326.000000
5426.000000	332.000000
5429.000000	332.000000
5432.000000	324.000000
5436.000000	315.000000
5439.000000	312.000000
5442.000000	314.000000
5445.000000	321.000000
5448.000000	328.000000
5451.000000	322.000000
5455.000000	311.000000
5458.000000	303.000000
5462.000000	297.000000
5465.000000	308.000000
5468.000000	320.000000
5471.000000	320.000000
5475.000000	314.000000
5478.000000	307.000000
5481.000000	312.000000
5484.000000	324.000000
5487.000000	336.000000
5490.000000	336.000000
5493.000000	334.000000
5497.000000	328.000000
5500.000000	327.000000
5504.000000	335.000000
5507.000000	349.000000
5510.000000	347.000000
5513.000000	335.000000
5517.000000	323.000000
5520.000000	319.000000
5523.000000	324.000000
5526.000000	337.000000
5529.000000	340.000000
5532.000000	335.000000
5535.000000	331.000000
5539.000000	331.000000
5542.000000	331.000000
5545.000000	332.000000
5549.000000	309.000000
5552.000000	272.000000
5555.000000	226.000000
5559.000000	180.000000
5562.000000	136.000000
5565.000000	113.000000
5568.000000	120.000000
5571.000000	151.000000
5574.000000	208.000000
5577.000000	282.000000
5581.000000	351.000000
5584.000000	392.000000
5587.000000	392.000000
5591.000000	368.000000
5594.000000	339.000000
5597.000000	322.000000
5601.000000	323.000000
5604.000000	332.000000
5607.000000	340.000000
5610.000000	341.000000
5613.000000	338.000000
5616.000000	333.000000
5619.000000	331.000000
5623.000000	335.000000
5626.000000	345.000000
5629.000000	347.000000
5633.000000	342.000000
5636.000000	332.000000
5639.000000	330.000000
5643.000000	328.000000
5646.000000	336.000000
5649.000000	334.000000
5652.000000	330.000000
5655.000000	323.000000
5658.000000	326.000000
5661.000000	327.000000
5665.000000	338.000000
5668.000000	336.000000
5671.000000	333.000000
5675.000000	328.000000
5678.000000	325.000000
5681.000000	323.000000
5685.000000	332.000000
5688.000000	335.000000
5691.000000	330.000000
5694.000000	322.000000
5697.000000	316.000000
5700.000000	316.000000
5703.000000	326.000000
5707.000000	334.000000
5710.000000	331.000000
5713.000000	320.000000
5716.000000	315.000000
5720.000000	313.000000
5723.000000	322.000000
5727.000000	326.000000
5730.000000	321.000000
5733.000000	314.000000
5736.000000	309.000000
5739.000000	308.000000
5742.000000	310.000000
5745.000000	319.000000
5749.000000	319.000000
5752.000000	313.000000
5755.000000	303.000000
5758.000000	301.000000
5762.000000	303.000000
5765.000000	314.000000
5769.000000	310.000000
5772.000000	302.000000
5775.000000	289.000000
5778.000000	286.000000
5781.000000	291.000000
5784.000000	298.000000
5787.000000	304.000000
5791.000000	300.000000
5794.000000	288.000000
5797.000000	282.000000
5800.000000	281.000000
5804.000000	292.000000
5807.000000	297.000000
5811.000000	296.000000
5814.000000	288.000000
5817.000000	280.000000
5820.000000	280.000000
5823.000000	291.000000
5826.000000	298.000000
5829.000000	297.000000
5833.000000	291.000000
5836.000000	288.000000
5839.000000	289.000000
5842.000000	299.000000
5846.000000	312.000000
5849.000000	315.000000
5853.000000	309.000000
5856.000000	304.000000
5859.000000	306.000000
5862.000000	315.000000
5865.000000	324.000000
5868.000000	326.000000
5871.000000	324.000000
5875.000000	321.000000
5878.000000	323.000000
5881.000000	333.000000
5884.000000	346.000000
5888.000000	342.000000
5891.000000	334.000000
5895.000000	327.000000
5898.000000	329.000000
5901.000000	336.000000
5904.000000	347.000000
5907.000000	347.000000
5910.000000	345.000000
5913.000000	337.000000
5917.000000	335.000000
5920.000000	336.000000
5923.000000	347.000000
5926.000000	352.000000
5929.000000	347.000000
5933.000000	339.000000
5937.000000	337.000000
5940.000000	337.000000
5943.000000	347.000000
5946.000000	353.000000
5949.000000	350.000000
5952.000000	338.000000
5955.000000	330.000000
5959.000000	328.000000
5962.000000	335.000000
5965.000000	344.000000
5968.000000	342.000000
5971.000000	335.000000
5975.000000	332.000000
5979.000000	333.000000
5982.000000	341.000000
5985.000000	349.000000
5988.000000	345.000000
5991.000000	336.000000
5994.000000	329.000000
5997.000000	327.000000
6001.000000	333.000000
6004.000000	344.000000
6007.000000	343.000000
6010.000000	333.000000
6013.000000	324.000000
6017.000000	323.000000
6021.000000	332.000000
6024.000000	345.000000
6027.000000	345.000000
6030.000000	336.000000
6033.000000	325.000000
6036.000000	325.000000
6040.000000	328.000000
6043.000000	338.000000
6046.000000	342.000000
6049.000000	337.000000
6052.000000	329.000000
6055.000000	325.000000
6059.000000	326.000000
6063.000000	336.000000
6066.000000	337.000000
6069.000000	333.000000
6072.000000	326.000000
6075.000000	321.000000
6078.000000	324.000000
6082.000000	334.000000
6085.000000	335.000000
6088.000000	334.000000
6091.000000	330.000000
6094.000000	329.000000
6097.000000	330.000000
6100.000000	339.000000
6105.000000	342.000000
6108.000000	339.000000
6111.000000	332.000000
6114.000000	327.000000
6117.000000	327.000000
6120.000000	336.000000
6124.000000	341.000000
6127.000000	335.000000
6130.000000	331.000000
6133.000000	329.000000
6136.000000	329.000000
6139.000000	334.000000
6142.000000	341.000000
6147.000000	336.000000
6150.000000	331.000000
6153.000000	326.000000
6156.000000	322.000000
6159.000000	326.000000
6162.000000	335.000000
6166.000000	330.000000
6169.000000	326.000000
6172.000000	320.000000
6175.000000	321.000000
6178.000000	327.000000
6181.000000	336.000000
6184.000000	336.000000
6189.000000	333.000000
6192.000000	328.000000
6195.000000	328.000000
6198.000000	326.000000
6201.000000	332.000000
6204.000000	335.000000
6208.000000	333.000000
6211.000000	326.000000
6214.000000	323.000000
6217.000000	323.000000
6220.000000	330.000000
6223.000000	332.000000
6226.000000	330.000000
6231.000000	326.000000
6234.000000	323.000000
6237.000000	325.000000
6240.000000	329.000000
6243.000000	334.000000
6246.000000	331.000000
6250.000000	326.000000
6253.000000	323.000000
6256.000000	325.000000
6259.000000	332.000000
6262.000000	334.000000
6265.000000	327.000000
6268.000000	319.000000
6273.000000	313.000000
6276.000000	318.000000
6279.000000	323.000000
6282.000000	335.000000
6285.000000	331.000000
6288.000000	325.000000
6292.000000	319.000000
6295.000000	319.000000
6298.000000	321.000000
6301.000000	327.000000
6304.000000	327.000000
6307.000000	323.000000
6310.000000	311.000000
6315.000000	305.000000
6318.000000	304.000000
6321.000000	316.000000
6324.000000	320.000000
6327.000000	314.000000
6330.000000	308.000000
6334.000000	306.000000
6337.000000	304.000000
6340.000000	306.000000
6343.000000	307.000000
6346.000000	301.000000
6349.000000	296.000000
6352.000000	297.000000
6356.000000	300.000000
6360.000000	312.000000
6363.000000	325.000000
6366.000000	329.000000
6369.000000	322.000000
6372.000000	315.000000
6376.000000	317.000000
6379.000000	330.000000
6382.000000	339.000000
6385.000000	337.000000
6388.000000	329.000000
6391.000000	324.000000
6394.000000	324.000000
6398.000000	332.000000
6402.000000	339.000000
6405.000000	334.000000
6408.000000	328.000000
6411.000000	322.000000
6414.000000	323.000000
6418.000000	332.000000
6421.000000	346.000000
6424.000000	337.000000
6427.000000	311.000000
6430.000000	272.000000
6433.000000	234.000000
6436.000000	191.000000
6440.000000	151.000000
6444.000000	115.000000
6447.000000	110.000000
6450.000000	131.000000
6453.000000	185.000000
6456.000000	268.000000
6460.000000	350.000000
6463.000000	389.000000
6466.000000	387.000000
6469.000000	360.000000
6472.000000	338.000000
6475.000000	331.000000
6478.000000	337.000000
6482.000000	335.000000
6486.000000	331.000000
6489.000000	328.000000
6492.000000	328.000000
6495.000000	329.000000
6498.000000	333.000000
6502.000000	343.000000
6505.000000	346.000000
6508.000000	341.000000
6511.000000	335.000000
6514.000000	329.000000
6517.000000	331.000000
6520.000000	340.000000
6524.000000	337.000000
6528.000000	333.000000
6531.000000	328.000000
6534.000000	325.000000
6537.000000	331.000000
6540.000000	340.000000
6544.000000	336.000000
6547.000000	333.000000
6550.000000	329.000000
6553.000000	329.000000
6556.000000	328.000000
6559.000000	337.000000
6563.000000	337.000000
6566.000000	331.000000
6569.000000	322.000000
6573.000000	319.000000
6576.000000	319.000000
6579.000000	331.000000
6582.000000	338.000000
6586.000000	333.000000
6589.000000	320.000000
6592.000000	315.000000
6595.000000	316.000000
6598.000000	326.000000
6601.000000	327.000000
6605.000000	320.000000
6608.000000	309.000000
6611.000000	305.000000
6615.000000	307.000000
6618.000000	317.000000
6621.000000	322.000000
6624.000000	319.000000
6628.000000	313.000000
6631.000000	307.000000
6634.000000	303.000000
6637.000000	309.000000
6640.000000	313.000000
6643.000000	310.000000
6647.000000	301.000000
6650.000000	294.000000
6653.000000	295.000000
6657.000000	302.000000
6660.000000	310.000000
6663.000000	305.000000
6666.000000	294.000000
6670.000000	285.000000
6673.000000	281.000000
6676.000000	290.000000
6679.000000	302.000000
6682.000000	299.000000
6685.000000	289.000000
6689.000000	281.000000
6692.000000	282.000000
6695.000000	289.000000
6699.000000	300.000000
6702.000000	301.000000
6705.000000	297.000000
6708.000000	284.000000
6712.000000	279.000000
6715.000000	281.000000
6718.000000	299.000000
6721.000000	307.000000
6724.000000	307.000000
6727.000000	300.000000
6731.000000	298.000000
6734.000000	304.000000
6737.000000	316.000000
6740.000000	321.000000
6744.000000	320.000000
6747.000000	317.000000
6750.000000	317.000000
6754.000000	320.000000
6757.000000	331.000000
6760.000000	339.000000
6763.000000	339.000000
6766.000000	332.000000
6769.000000	329.000000
6773.000000	332.000000
6776.000000	339.000000
6779.000000	348.000000
6782.000000	347.000000
6786.000000	343.000000
6789.000000	337.000000
6792.000000	335.000000
6796.000000	341.000000
6799.000000	352.000000
6802.000000	353.000000
6805.000000	346.000000
6808.000000	336.000000
6811.000000	335.000000
6815.000000	342.000000
6818.000000	353.000000
6821.000000	353.000000
6824.000000	348.000000
6828.000000	341.000000
6831.000000	340.000000
6834.000000	344.000000
6838.000000	351.000000
6841.000000	350.000000
6844.000000	349.000000
6847.000000	343.000000
6850.000000	339.000000
6853.000000	338.000000
6857.000000	346.000000
6860.000000	348.000000
6863.000000	347.000000
6866.000000	340.000000
6870.000000	337.000000
6873.000000	338.000000
6876.000000	347.000000
6880.000000	348.000000
6883.000000	344.000000
6886.000000	338.000000
6889.000000	334.000000
6892.000000	335.000000
6895.000000	341.000000
6899.000000	347.000000
6902.000000	347.000000
6905.000000	341.000000
6908.000000	338.000000
6912.000000	337.000000
6915.000000	336.000000
6918.000000	343.000000
6922.000000	343.000000
6925.000000	340.000000
6928.000000	336.000000
6931.000000	336.000000
6934.000000	340.000000
6937.000000	347.000000
6941.000000	343.000000
6944.000000	338.000000
6947.000000	333.000000
6950.000000	331.000000
6953.000000	335.000000
6957.000000	345.000000
6960.000000	345.000000
6964.000000	341.000000
6967.000000	330.000000
6970.000000	332.000000
6973.000000	338.000000
6976.000000	348.000000
6979.000000	346.000000
6983.000000	340.000000
6986.000000	333.000000
6989.000000	330.000000
6992.000000	333.000000
6995.000000	341.000000
6999.000000	344.000000
7002.000000	340.000000
7006.000000	330.000000
7009.000000	327.000000
7012.000000	330.000000
7015.000000	340.000000
7018.000000	345.000000
7021.000000	338.000000
7025.000000	334.000000
7028.000000	330.000000
7031.000000	329.000000
7034.000000	334.000000
7037.000000	340.000000
7041.000000	340.000000
7044.000000	339.000000
7048.000000	331.000000
7051.000000	327.000000
7054.000000	329.000000
7057.000000	335.000000
7060.000000	335.000000
7063.000000	333.000000
7067.000000	328.000000
7070.000000	328.000000
7073.000000	333.000000
7076.000000	340.000000
7079.000000	336.000000
7083.000000	332.000000
7086.000000	327.000000
7090.000000	327.000000
7093.000000	332.000000
7096.000000	339.000000
7099.000000	339.000000
7102.000000	330.000000
7105.000000	322.000000
7109.000000	327.000000
7112.000000	330.000000
7115.000000	334.000000
7118.000000	332.000000
7121.000000	326.000000
7124.000000	322.000000
7129.000000	321.000000
7132.000000	323.000000
7135.000000	334.000000
7138.000000	340.000000
7141.000000	332.000000
7144.000000	325.000000
7147.000000	323.000000
7151.000000	326.000000
7154.000000	335.000000
7157.000000	339.000000
7160.000000	331.000000
7163.000000	321.000000
7166.000000	319.000000
7171.000000	320.000000
7174.000000	327.000000
7177.000000	334.000000
7180.000000	328.000000
7183.000000	320.000000
7186.000000	316.000000
7189.000000	317.000000
7193.000000	320.000000
7196.000000	330.000000
7199.000000	332.000000
7202.000000	326.000000
7205.000000	313.000000
7208.000000	311.000000
7213.000000	317.000000
7216.000000	321.000000
7219.000000	315.000000
7222.000000	311.000000
7225.000000	303.000000
7228.000000	302.000000
7231.000000	302.000000
7235.000000	312.000000
7238.000000	308.000000
7241.000000	302.000000
7244.000000	294.000000
7247.000000	293.000000
7250.000000	297.000000
7255.000000	308.000000
7258.000000	314.000000
7261.000000	316.000000
7264.000000	315.000000
7267.000000	319.000000
7270.000000	323.000000
7273.000000	331.000000
7277.000000	339.000000
7280.000000	337.000000
7283.000000	324.000000
7286.000000	316.000000
7289.000000	318.000000
7292.000000	329.000000
7297.000000	338.000000
7300.000000	335.000000
7303.000000	330.000000
7306.000000	329.000000
7309.000000	334.000000
7312.000000	336.000000
7315.000000	339.000000
7319.000000	331.000000
7322.000000	318.000000
7325.000000	291.000000
7328.000000	252.000000
7331.000000	218.000000
7334.000000	182.000000
7339.000000	134.000000
7342.000000	100.000000
7345.000000	101.000000
7348.000000	141.000000
7351.000000	214.000000
7354.000000	306.000000
7357.000000	370.000000
7361.000000	393.000000
7364.000000	381.000000
7367.000000	361.000000
7370.000000	339.000000
7373.000000	334.000000
7376.000000	332.000000
7380.000000	331.000000
7384.000000	327.000000
7387.000000	330.000000
7390.000000	334.000000
7393.000000	345.000000
7396.000000	347.000000
7399.000000	340.000000
7403.000000	330.000000
7406.000000	326.000000
7409.000000	328.000000
7412.000000	336.000000
7415.000000	341.000000
7418.000000	339.000000
7422.000000	334.000000
7426.000000	332.000000
7429.000000	328.000000
7432.000000	332.000000
7435.000000	337.000000
7438.000000	332.000000
7441.000000	329.000000
7445.000000	326.000000
7448.000000	323.000000
7451.000000	329.000000
7454.000000	338.000000
7457.000000	334.000000
7460.000000	327.000000
7464.000000	320.000000
7468.000000	321.000000
7471.000000	323.000000
7474.000000	330.000000
7477.000000	329.000000
7480.000000	323.000000
7483.000000	314.000000
7487.000000	321.000000
7490.000000	323.000000
7493.000000	326.000000
7496.000000	324.000000
7499.000000	321.000000
7502.000000	311.000000
7506.000000	309.000000
7510.000000	312.000000
7513.000000	320.000000
7516.000000	318.000000
7519.000000	315.000000
7522.000000	308.000000
7525.000000	305.000000
7529.000000	308.000000
7532.000000	313.000000
7535.000000	311.000000
7538.000000	303.000000
7541.000000	296.000000
7544.000000	297.000000
7548.000000	299.000000
7552.000000	307.000000
7555.000000	313.000000
7558.000000	306.000000
7561.000000	296.000000
7564.000000	286.000000
7567.000000	282.000000
7571.000000	286.000000
7574.000000	294.000000
7577.000000	294.000000
7580.000000	293.000000
7583.000000	291.000000
7586.000000	288.000000
7590.000000	289.000000
7593.000000	298.000000
7597.000000	299.000000
7600.000000	294.000000
7603.000000	284.000000
7606.000000	284.000000
7609.000000	288.000000
7613.000000	298.000000
7616.000000	299.000000
7619.000000	298.000000
7622.000000	295.000000
7625.000000	295.000000
7628.000000	299.000000
7632.000000	313.000000
7635.000000	318.000000
7639.000000	317.000000
7642.000000	310.000000
7645.000000	307.000000
7648.000000	313.000000
7651.000000	328.000000
7655.000000	341.000000
7658.000000	340.000000
7661.000000	332.000000
7664.000000	328.000000
7667.000000	330.000000
7670.000000	335.000000
7674.000000	340.000000
7677.000000	343.000000
7681.000000	339.000000
7684.000000	336.000000
7687.000000	335.000000
7690.000000	342.000000
7694.000000	350.000000
7697.000000	347.000000
7700.000000	338.000000
7703.000000	334.000000
7706.000000	335.000000
7709.000000	340.000000
7712.000000	348.000000
7716.000000	346.000000
7719.000000	340.000000
7723.000000	335.000000
7726.000000	337.000000
7729.000000	341.000000
7732.000000	347.000000
7736.000000	344.000000
7739.000000	339.000000
7742.000000	330.000000
7745.000000	328.000000
7748.000000	335.000000
7751.000000	348.000000
7754.000000	349.000000
7758.000000	345.000000
7761.000000	339.000000
7764.000000	334.000000
7768.000000	335.000000
7771.000000	339.000000
7774.000000	338.000000
7778.000000	338.000000
7781.000000	334.000000
7784.000000	334.000000
7787.000000	334.000000
7790.000000	337.000000
7793.000000	339.000000
7796.000000	338.000000
7800.000000	334.000000
7803.000000	329.000000
7806.000000	325.000000
7810.000000	333.000000
7813.000000	340.000000
7816.000000	338.000000
7820.000000	333.000000
7823.000000	329.000000
7826.000000	331.000000
7829.000000	338.000000
7832.000000	344.000000
7835.000000	341.000000
7838.000000	338.000000
7842.000000	335.000000
7845.000000	336.000000
7848.000000	337.000000
7852.000000	343.000000
7855.000000	340.000000
7858.000000	336.000000
7862.000000	333.000000
7865.000000	333.000000
7868.000000	335.000000
7871.000000	344.000000
7874.000000	341.000000
7877.000000	336.000000
7880.000000	329.000000
7884.000000	325.000000
7887.000000	327.000000
7890.000000	342.000000
7894.000000	347.000000
7897.000000	346.000000
7900.000000	339.000000
7904.000000	336.000000
7907.000000	335.000000
7910.000000	342.000000
7913.000000	344.000000
7916.000000	340.000000
7919.000000	332.000000
7922.000000	324.000000
7926.000000	325.000000
7929.000000	337.000000
7932.000000	346.000000
7936.000000	345.000000
7939.000000	337.000000
7942.000000	332.000000
7946.000000	333.000000
7949.000000	339.000000
7952.000000	343.000000
7955.000000	338.000000
7958.000000	331.000000
7961.000000	323.000000
7964.000000	322.000000
7968.000000	336.000000
7971.000000	345.000000
7974.000000	340.000000
7977.000000	332.000000
7981.000000	325.000000
7984.000000	327.000000
7988.000000	332.000000
7991.000000	343.000000
7994.000000	342.000000
7997.000000	332.000000
8000.000000	320.000000
8003.000000	319.000000
8006.000000	325.000000
8010.000000	341.000000
8013.000000	343.000000
8016.000000	339.000000
8019.000000	330.000000
8023.000000	328.000000
8026.000000	329.000000
8030.000000	338.000000
8033.000000	339.000000
8036.000000	332.000000
8039.000000	323.000000
8042.000000	326.000000
8045.000000	334.000000
8048.000000	341.000000
8052.000000	340.000000
8055.000000	333.000000
8058.000000	325.000000
8061.000000	326.000000
8065.000000	329.000000
8068.000000	336.000000
8072.000000	332.000000
8075.000000	327.000000
8078.000000	320.000000
8081.000000	313.000000
8084.000000	314.000000
8087.000000	323.000000
8090.000000	332.000000
8094.000000	330.000000
8097.000000	320.000000
8100.000000	312.000000
8103.000000	311.000000
8107.000000	315.000000
8110.000000	323.000000
8114.000000	321.000000
8117.000000	313.000000
8120.000000	303.000000
8123.000000	299.000000
8126.000000	303.000000
8129.000000	311.000000
8132.000000	310.000000
8136.000000	308.000000
8139.000000	302.000000
8142.000000	297.000000
8145.000000	303.000000
8148.000000	321.000000
8152.000000	328.000000
8156.000000	330.000000
8159.000000	327.000000
8162.000000	330.000000
8165.000000	334.000000
8168.000000	339.000000
8171.000000	337.000000
8174.000000	333.000000
8178.000000	331.000000
8181.000000	328.000000
8184.000000	322.000000
8187.000000	332.000000
8190.000000	340.000000
8194.000000	342.000000
8198.000000	331.000000
8201.000000	324.000000
8204.000000	325.000000
8207.000000	328.000000
8210.000000	325.000000
8213.000000	300.000000
8217.000000	257.000000
8220.000000	212.000000
8223.000000	165.000000
8226.000000	125.000000
8229.000000	105.000000
8232.000000	107.000000
8236.000000	134.000000
8240.000000	195.000000
8243.000000	282.000000
8246.000000	362.000000
8249.000000	411.000000
8252.000000	405.000000
8255.000000	381.000000
8259.000000	355.000000
8262.000000	339.000000
8265.000000	333.000000
8268.000000	342.000000
8271.000000	342.000000
8274.000000	338.000000
8278.000000	330.000000
8282.000000	331.000000
8285.000000	335.000000
8288.000000	344.000000
8291.000000	344.000000
8294.000000	337.000000
8297.000000	327.000000
8301.000000	326.000000
8304.000000	330.000000
8307.000000	338.000000
8310.000000	343.000000
8313.000000	342.000000
8316.000000	330.000000
8320.000000	327.000000
8324.000000	324.000000
8327.000000	328.000000
8330.000000	332.000000
8333.000000	329.000000
8336.000000	324.000000
8339.000000	324.000000
8343.000000	326.000000
8346.000000	329.000000
8349.000000	334.000000
8352.000000	333.000000
8355.000000	327.000000
8358.000000	321.000000
8361.000000	317.000000
8366.000000	322.000000
8369.000000	330.000000
8372.000000	329.000000
8375.000000	326.000000
8378.000000	316.000000
8381.000000	310.000000
8385.000000	313.000000
8388.000000	326.000000
8391.000000	326.000000
8394.000000	323.000000
8397.000000	311.000000
8400.000000	304.000000
8403.000000	306.000000
8408.000000	317.000000
8411.000000	316.000000
8414.000000	310.000000
8417.000000	301.000000
8420.000000	300.000000
8423.000000	303.000000
8427.000000	309.000000
8430.000000	307.000000
8433.000000	301.000000
8436.000000	297.000000
8439.000000	298.000000
8442.000000	300.000000
8445.000000	303.000000
8450.000000	303.000000
8453.000000	300.000000
8456.000000	293.000000
8459.000000	287.000000
8462.000000	285.000000
8465.000000	292.000000
8469.000000	297.000000
8472.000000	296.000000
8475.000000	289.000000
8478.000000	285.000000
8481.000000	284.000000
8484.000000	289.000000
8487.000000	294.000000
8492.000000	291.000000
8495.000000	284.000000
8498.000000	281.000000
8501.000000	287.000000
8504.000000	295.000000
8507.000000	308.000000
8511.000000	305.000000
8514.000000	297.000000
8517.000000	293.000000
8520.000000	298.000000
8523.000000	307.000000
8526.000000	320.000000
8529.000000	323.000000
8534.000000	324.000000
8537.000000	320.000000
8540.000000	317.000000
8543.000000	320.000000
8546.000000	332.000000
8549.000000	336.000000
8553.000000	336.000000
8556.000000	333.000000
8559.000000	331.000000
8562.000000	333.000000
8565.000000	344.000000
8568.000000	349.000000
8571.000000	349.000000
8576.000000	341.000000
8579.000000	339.000000
8582.000000	335.000000
8585.000000	338.000000
8588.000000	340.000000
8591.000000	340.000000
8595.000000	338.000000
8598.000000	335.000000
8601.000000	332.000000
8604.000000	339.000000
8607.000000	346.000000
8610.000000	343.000000
8613.000000	337.000000
8617.000000	332.000000
8621.000000	330.000000
8624.000000	336.000000
8627.000000	345.000000
8630.000000	342.000000
8633.000000	340.000000
8637.000000	333.000000
8640.000000	332.000000
8643.000000	336.000000
8646.000000	344.000000
8649.000000	341.000000
8652.000000	337.000000
8655.000000	332.000000
8659.000000	334.000000
8663.000000	335.000000
8666.000000	343.000000
8669.000000	340.000000
8672.000000	337.000000
8675.000000	325.000000
8679.000000	321.000000
8682.000000	327.000000
8685.000000	340.000000
8688.000000	344.000000
8691.000000	339.000000
8694.000000	330.000000
8697.000000	331.000000
8701.000000	328.000000
8705.000000	333.000000
8708.000000	334.000000
8711.000000	331.000000
8714.000000	327.000000
8717.000000	328.000000
8721.000000	335.000000
8724.000000	344.000000
8727.000000	346.000000
8730.000000	337.000000
8733.000000	327.000000
8736.000000	324.000000
8739.000000	326.000000
8743.000000	335.000000
8747.000000	344.000000
8750.000000	342.000000
8753.000000	334.000000
8756.000000	327.000000
8759.000000	324.000000
8763.000000	329.000000
8766.000000	341.000000
8769.000000	337.000000
8772.000000	334.000000
8775.000000	330.000000
8778.000000	330.000000
8782.000000	332.000000
8785.000000	338.000000
8788.000000	336.000000
8792.000000	333.000000
8795.000000	329.000000
8798.000000	331.000000
8801.000000	333.000000
8805.000000	342.000000
8808.000000	342.000000
8811.000000	334.000000
8814.000000	321.000000
8817.000000	321.000000
8820.000000	326.000000
8824.000000	340.000000
8827.000000	343.000000
8830.000000	340.000000
8834.000000	330.000000
8837.000000	325.000000
8840.000000	326.000000
8843.000000	334.000000
8847.000000	343.000000
8850.000000	341.000000
8853.000000	332.000000
8856.000000	327.000000
8859.000000	328.000000
8862.000000	335.000000
8866.000000	339.000000
8869.000000	334.000000
8872.000000	329.000000
8876.000000	323.000000
8879.000000	325.000000
8882.000000	335.000000
8885.000000	344.000000
8889.000000	338.000000
8892.000000	329.000000
8895.000000	323.000000
8898.000000	320.000000
8901.000000	325.000000
8904.000000	342.000000
8908.000000	343.000000
8911.000000	337.000000
8914.000000	326.000000
8918.000000	321.000000
8921.000000	322.000000
8924.000000	330.000000
8927.000000	331.000000
8931.000000	334.000000
8934.000000	329.000000
8937.000000	328.000000
8940.000000	327.000000
8943.000000	332.000000
8946.000000	329.000000
8950.000000	323.000000
8953.000000	312.000000
8956.000000	308.000000
8960.000000	312.000000
8963.000000	322.000000
8966.000000	325.000000
8969.000000	322.000000
8973.000000	315.000000
8976.000000	310.000000
8979.000000	306.000000
8982.000000	309.000000
8985.000000	314.000000
8988.000000	310.000000
8992.000000	301.000000
8995.000000	301.000000
8998.000000	309.000000
9001.000000	326.000000
9005.000000	343.000000
9008.000000	342.000000
9011.000000	332.000000
9015.000000	330.000000
9018.000000	332.000000
9021.000000	336.000000
9024.000000	343.000000
9027.000000	339.000000
9030.000000	333.000000
9034.000000	329.000000
9037.000000	331.000000
9040.000000	336.000000
9043.000000	346.000000
9047.000000	344.000000
9050.000000	339.000000
9053.000000	328.000000
9057.000000	324.000000
9060.000000	323.000000
9063.000000	318.000000
9066.000000	289.000000
9069.000000	251.000000
9072.000000	203.000000
9076.000000	154.000000
9079.000000	118.000000
9082.000000	119.000000
9085.000000	145.000000
9089.000000	191.000000
9092.000000	260.000000
9095.000000	337.000000
9099.000000	390.000000
9102.000000	416.000000
9105.000000	410.000000
9108.000000	382.000000
9111.000000	355.000000
9114.000000	339.000000
9118.000000	335.000000
9121.000000	339.000000
9124.000000	346.000000
9127.000000	345.000000
9131.000000	337.000000
9134.000000	333.000000
9137.000000	331.000000
9141.000000	333.000000
9144.000000	339.000000
9147.000000	339.000000
9150.000000	336.000000
9153.000000	332.000000
9156.000000	332.000000
9160.000000	337.000000
9163.000000	344.000000
9166.000000	337.000000
9169.000000	328.000000
9172.000000	325.000000
9176.000000	330.000000
9179.000000	336.000000
9183.000000	346.000000
9186.000000	341.000000
9189.000000	333.000000
9192.000000	320.000000
9195.000000	318.000000
9198.000000	326.000000
9202.000000	339.000000
9205.000000	341.000000
9208.000000	334.000000
9211.000000	321.000000
9214.000000	316.000000
9218.000000	318.000000
9221.000000	329.000000
9225.000000	335.000000
9228.000000	329.000000
9231.000000	319.000000
9234.000000	314.000000
9237.000000	309.000000
9240.000000	314.000000
9244.000000	320.000000
9247.000000	321.000000
9250.000000	315.000000
9253.000000	310.000000
9256.000000	310.000000
9260.000000	317.000000
9263.000000	320.000000
9267.000000	312.000000
9270.000000	307.000000
9273.000000	307.000000
9276.000000	307.000000
9279.000000	312.000000
9282.000000	318.000000
9286.000000	312.000000
9289.000000	305.000000
9292.000000	299.000000
9295.000000	297.000000
9298.000000	299.000000
9302.000000	308.000000
9305.000000	303.000000
9309.000000	296.000000
9312.000000	288.000000
9315.000000	287.000000
9318.000000	288.000000
9321.000000	296.000000
9324.000000	296.000000
9328.000000	291.000000
9331.000000	286.000000
9334.000000	288.000000
9337.000000	296.000000
9340.000000	301.000000
9344.000000	294.000000
9348.000000	290.000000
9351.000000	287.000000
9354.000000	288.000000
9357.000000	288.000000
9360.000000	298.000000
9363.000000	307.000000
9366.000000	311.000000
9370.000000	310.000000
9373.000000	311.000000
9376.000000	310.000000
9379.000000	320.000000
9382.000000	329.000000
9385.000000	329.000000
9390.000000	321.000000
9393.000000	319.000000
9396.000000	321.000000
9399.000000	329.000000
9402.000000	339.000000
9405.000000	340.000000
9408.000000	338.000000
9412.000000	336.000000
9415.000000	335.000000
9418.000000	338.000000
9421.000000	347.000000
9424.000000	345.000000
9427.000000	343.000000
9432.000000	338.000000
9435.000000	339.000000
9438.000000	344.000000
9441.000000	352.000000
9444.000000	348.000000
9447.000000	342.000000
9450.000000	337.000000
9454.000000	337.000000
9457.000000	337.000000
9460.000000	345.000000
9463.000000	346.000000
9466.000000	344.000000
9469.000000	342.000000
9474.000000	339.000000
9477.000000	335.000000
9480.000000	344.000000
9483.000000	344.000000
9486.000000	338.000000
9489.000000	332.000000
9492.000000	331.000000
9496.000000	335.000000
9499.000000	345.000000
9502.000000	346.000000
9505.000000	338.000000
9508.000000	329.000000
9511.000000	328.000000
9516.000000	332.000000
9519.000000	343.000000
9522.000000	349.000000
9525.000000	344.000000
9528.000000	336.000000
9531.000000	330.000000
9534.000000	327.000000
9538.000000	333.000000
9541.000000	341.000000
9544.000000	338.000000
9547.000000	336.000000
9550.000000	332.000000
9553.000000	331.000000
9558.000000	335.000000
9561.000000	346.000000
9564.000000	341.000000
9567.000000	333.000000
9570.000000	329.000000
9573.000000	328.000000
9576.000000	330.000000
9580.000000	342.000000
9583.000000	344.000000
9586.000000	341.000000
9589.000000	331.000000
9592.000000	328.000000
9595.000000	327.000000
9600.000000	335.000000
9603.000000	339.000000
9606.000000	338.000000
9609.000000	331.000000
9612.000000	328.000000
9615.000000	330.000000
9618.000000	343.000000
9622.000000	346.000000
9625.000000	341.000000
9628.000000	330.000000
9631.000000	326.000000
9634.000000	326.000000
9637.000000	331.000000
9641.000000	339.000000
9645.000000	339.000000
9648.000000	333.000000
9651.000000	332.000000
9654.000000	333.000000
9657.000000	338.000000
9660.000000	344.000000
9664.000000	341.000000
9667.000000	335.000000
9670.000000	327.000000
9673.000000	323.000000
9676.000000	326.000000
9679.000000	335.000000
9683.000000	338.000000
9687.000000	335.000000
9690.000000	328.000000
9693.000000	327.000000
9696.000000	333.000000
9699.000000	345.000000
9702.000000	341.000000
9706.000000	338.000000
9709.000000	331.000000
9712.000000	326.000000
9715.000000	323.000000
9718.000000	334.000000
9721.000000	338.000000
9725.000000	337.000000
9729.000000	328.000000
9732.000000	326.000000
9735.000000	327.000000
9738.000000	336.000000
9741.000000	337.000000
9744.000000	336.000000
9748.000000	329.000000
9751.000000	327.000000
9754.000000	327.000000
9757.000000	330.000000
9760.000000	333.000000
9763.000000	329.000000
9767.000000	322.000000
9771.000000	325.000000
9774.000000	327.000000
9777.000000	332.000000
9780.000000	335.000000
9783.000000	328.000000
9786.000000	318.000000
9790.000000	309.000000
9793.000000	306.000000
9796.000000	313.000000
9799.000000	323.000000
9802.000000	324.000000
9805.000000	321.000000
9809.000000	318.000000
9812.000000	314.000000
9816.000000	308.000000
9819.000000	311.000000
9822.000000	306.000000
9825.000000	301.000000
9828.000000	295.000000
9832.000000	297.000000
9835.000000	306.000000
9838.000000	320.000000
9841.000000	323.000000
9844.000000	326.000000
9847.000000	328.000000
9851.000000	330.000000
9854.000000	333.000000
9858.000000	340.000000
9861.000000	339.000000
9864.000000	334.000000
9867.000000	327.000000
9871.000000	331.000000
9874.000000	334.000000
9877.000000	338.000000
9880.000000	339.000000
9883.000000	337.000000
9886.000000	331.000000
9889.000000	329.000000
9893.000000	332.000000
9896.000000	340.000000
9900.000000	336.000000
9903.000000	312.000000
9906.000000	274.000000
9909.000000	233.000000
9913.000000	186.000000
9916.000000	147.000000
9919.000000	116.000000
9922.000000	105.000000
9925.000000	122.000000
9928.000000	170.000000
9931.000000	249.000000
9935.000000	335.000000
9938.000000	396.000000
9942.000000	408.000000
9945.000000	389.000000
9948.000000	365.000000
9951.000000	343.000000
9955.000000	335.000000
9958.000000	339.000000
9961.000000	338.000000
9964.000000	334.000000
9967.000000	331.000000
9970.000000	330.000000
9973.000000	333.000000
9977.000000	345.000000
9980.000000	347.000000
9984.000000	342.000000
9987.000000	331.000000
9990.000000	334.000000
9993.000000	339.000000
9997.000000	342.000000
10000.000000	340.000000
10003.000000	335.000000
10007.000000	328.000000
10010.000000	327.000000
10014.000000	332.000000
10017.000000	343.000000
10021.000000	341.000000
10024.000000	333.000000
10029.000000	319.000000
10032.000000	315.000000
10036.000000	322.000000
10039.000000	333.000000
10043.000000	332.000000
10046.000000	326.000000
10049.000000	325.000000
10053.000000	324.000000
10056.000000	330.000000
10060.000000	328.000000
10063.000000	322.000000
10067.000000	314.000000
10071.000000	313.000000
10075.000000	323.000000
10078.000000	327.000000
10082.000000	324.000000
10085.000000	313.000000
10089.000000	309.000000
10092.000000	309.000000
10096.000000	319.000000
10099.000000	321.000000
10103.000000	314.000000
10106.000000	303.000000
10110.000000	300.000000
10114.000000	303.000000
10118.000000	310.000000
10121.000000	305.000000
10125.000000	297.000000
10128.000000	296.000000
10132.000000	295.000000
10135.000000	303.000000
10139.000000	302.000000
10142.000000	297.000000
10146.000000	290.000000
10149.000000	286.000000
10153.000000	289.000000
10157.000000	299.000000
10161.000000	296.000000
10164.000000	291.000000
10168.000000	286.000000
10171.000000	286.000000
10175.000000	296.000000
10178.000000	301.000000
10181.000000	298.000000
10185.000000	289.000000
10188.000000	285.000000
10192.000000	287.000000
10195.000000	298.000000
10200.000000	301.000000
10203.000000	299.000000
10207.000000	295.000000
10210.000000	302.000000
10214.000000	317.000000
10217.000000	320.000000
10221.000000	322.000000
10224.000000	317.000000
10228.000000	317.000000
10231.000000	321.000000
10235.000000	332.000000
10238.000000	334.000000
10243.000000	332.000000
10246.000000	332.000000
10250.000000	331.000000
10253.000000	338.000000
10257.000000	350.000000
10260.000000	349.000000
10264.000000	341.000000
10267.000000	337.000000
10271.000000	337.000000
10274.000000	346.000000
10278.000000	348.000000
10281.000000	343.000000
10286.000000	338.000000
10289.000000	338.000000
10293.000000	341.000000
10296.000000	350.000000
10300.000000	343.000000
10303.000000	334.000000
10306.000000	330.000000
10310.000000	333.000000
10313.000000	344.000000
10317.000000	348.000000
10320.000000	346.000000
10324.000000	336.000000
10328.000000	334.000000
10332.000000	336.000000
10335.000000	347.000000
10339.000000	345.000000
10342.000000	338.000000
10346.000000	332.000000
10349.000000	329.000000
10353.000000	336.000000
10356.000000	344.000000
10360.000000	341.000000
10363.000000	330.000000
10368.000000	328.000000
10371.000000	331.000000
10375.000000	343.000000
10378.000000	342.000000
10382.000000	339.000000
10385.000000	329.000000
10389.000000	329.000000
10392.000000	337.000000
10396.000000	344.000000
10399.000000	346.000000
10403.000000	336.000000
10406.000000	327.000000
10411.000000	326.000000
10414.000000	341.000000
10418.000000	354.000000
10421.000000	350.000000
10425.000000	329.000000
10428.000000	323.000000
10432.000000	326.000000
10435.000000	337.000000
10438.000000	341.000000
10442.000000	337.000000
10445.000000	331.000000
10449.000000	329.000000
10452.000000	338.000000
10457.000000	338.000000
10460.000000	336.000000
10464.000000	330.000000
10467.000000	328.000000
10471.000000	335.000000
10474.000000	345.000000
10478.000000	339.000000
10481.000000	333.000000
10485.000000	329.000000
10488.000000	326.000000
10492.000000	333.000000
10496.000000	342.000000
10500.000000	343.000000
10503.000000	334.000000
10507.000000	329.000000
10510.000000	328.000000
10514.000000	338.000000
10517.000000	338.000000
10521.000000	333.000000
10524.000000	326.000000
10528.000000	326.000000
10531.000000	335.000000
10535.000000	338.000000
10539.000000	335.000000
10543.000000	329.000000
10546.000000	327.000000
10550.000000	327.000000
10553.000000	337.000000
10557.000000	338.000000
10560.000000	334.000000
10564.000000	326.000000
10567.000000	324.000000
10570.000000	331.000000
10574.000000	341.000000
10577.000000	336.000000
10582.000000	326.000000
10585.000000	324.000000
10589.000000	325.000000
10592.000000	334.000000
10596.000000	335.000000
10599.000000	329.000000
10603.000000	318.000000
10606.000000	318.000000
10610.000000	326.000000
10613.000000	333.000000
10617.000000	326.000000
10620.000000	314.000000
10625.000000	306.000000
10628.000000	307.000000
10632.000000	317.000000
10635.000000	322.000000
10639.000000	321.000000
10642.000000	309.000000
10646.000000	303.000000
10649.000000	300.000000
10653.000000	309.000000
10656.000000	311.000000
10660.000000	308.000000
10663.000000	307.000000
10668.000000	313.000000
10671.000000	330.000000
10675.000000	340.000000
10678.000000	338.000000
10682.000000	330.000000
10685.000000	327.000000
10689.000000	330.000000
10692.000000	339.000000
10696.000000	339.000000
10699.000000	334.000000
10702.000000	329.000000
10706.000000	328.000000
10710.000000	336.000000
10714.000000	345.000000
10717.000000	341.000000
10721.000000	335.000000
10724.000000	333.000000
10728.000000	328.000000
10731.000000	318.000000
10735.000000	281.000000
10738.000000	227.000000
10742.000000	170.000000
10745.000000	125.000000
10749.000000	104.000000
10753.000000	132.000000
10757.000000	180.000000
10760.000000	252.000000
10764.000000	330.000000
10767.000000	385.000000
10771.000000	402.000000
10774.000000	389.000000
10778.000000	359.000000
10781.000000	337.000000
10785.000000	330.000000
10788.000000	333.000000
10792.000000	345.000000
10796.000000	342.000000
10800.000000	337.000000
10803.000000	332.000000
10807.000000	332.000000
10810.000000	343.000000
10814.000000	349.000000
10817.000000	346.000000
10821.000000	337.000000
10824.000000	329.000000
10828.000000	332.000000
10831.000000	346.000000
10834.000000	345.000000
10839.000000	343.000000
10842.000000	336.000000
10846.000000	329.000000
10849.000000	329.000000
10853.000000	333.000000
10856.000000	331.000000
10860.000000	324.000000
10863.000000	323.000000
10867.000000	326.000000
10870.000000	336.000000
10874.000000	336.000000
10877.000000	331.000000
10882.000000	322.000000
10885.000000	318.000000
10889.000000	324.000000
10892.000000	332.000000
10896.000000	331.000000
10899.000000	323.000000
10903.000000	316.000000
10906.000000	315.000000
10910.000000	326.000000
10913.000000	328.000000
10917.000000	319.000000
10920.000000	306.000000
10925.000000	306.000000
10928.000000	311.000000
10932.000000	321.000000
10935.000000	321.000000
10939.000000	308.000000
10942.000000	297.000000
10946.000000	297.000000
10949.000000	308.000000
10953.000000	314.000000
10956.000000	313.000000
10959.000000	302.000000
10963.000000	299.000000
10967.000000	302.000000
10971.000000	305.000000
10974.000000	300.000000
10978.000000	294.000000
10981.000000	288.000000
10985.000000	288.000000
10988.000000	293.000000
10992.000000	300.000000
10995.000000	293.000000
10999.000000	284.000000
11002.000000	287.000000
11006.000000	287.000000
11010.000000	296.000000
11014.000000	296.000000
11017.000000	296.000000
11021.000000	291.000000
11024.000000	292.000000
11028.000000	302.000000
11031.000000	310.000000
11035.000000	307.000000
11038.000000	304.000000
11042.000000	307.000000
11045.000000	311.000000
11049.000000	323.000000
11053.000000	331.000000
11057.000000	331.000000
11060.000000	325.000000
11064.000000	323.000000
11067.000000	329.000000
11071.000000	342.000000
11074.000000	341.000000
11078.000000	336.000000
11081.000000	336.000000
11085.000000	338.000000
11088.000000	341.000000
11091.000000	348.000000
11096.000000	342.000000
11099.000000	330.000000
11103.000000	334.000000
11106.000000	343.000000
11110.000000	353.000000
11113.000000	352.000000
11117.000000	344.000000
11120.000000	335.000000
11124.000000	331.000000
11127.000000	338.000000
11131.000000	347.000000
11134.000000	346.000000
11139.000000	335.000000
11142.000000	328.000000
11146.000000	330.000000
11149.000000	343.000000
11153.000000	346.000000
11156.000000	342.000000
11160.000000	334.000000
11163.000000	333.000000
11167.000000	339.000000
11170.000000	343.000000
11174.000000	342.000000
11177.000000	334.000000
11182.000000	329.000000
11185.000000	326.000000
11189.000000	343.000000
11192.000000	349.000000
11196.000000	339.000000
11199.000000	327.000000
11203.000000	327.000000
11206.000000	327.000000
11210.000000	336.000000
11213.000000	336.000000
11217.000000	333.000000
11220.000000	328.000000
11224.000000	327.000000
11228.000000	336.000000
11231.000000	339.000000
11235.000000	335.000000
11238.000000	329.000000
11242.000000	326.000000
11245.000000	328.000000
11249.000000	338.000000
11252.000000	338.000000
11256.000000	335.000000
11259.000000	332.000000
11264.000000	332.000000
11267.000000	335.000000
11271.000000	341.000000
11274.000000	338.000000
11278.000000	332.000000
11281.000000	331.000000
11285.000000	332.000000
11288.000000	342.000000
11292.000000	341.000000
11295.000000	338.000000
11299.000000	327.000000
11302.000000	324.000000
11307.000000	339.000000
11310.000000	349.000000
11314.000000	339.000000
11317.000000	327.000000
11321.000000	324.000000
11324.000000	325.000000
11328.000000	335.000000
11331.000000	332.000000
11335.000000	330.000000
11338.000000	329.000000
11342.000000	330.000000
11345.000000	334.000000
11350.000000	341.000000
11353.000000	334.000000
11356.000000	331.000000
11360.000000	330.000000
11363.000000	329.000000
11367.000000	338.000000
11370.000000	337.000000
11374.000000	332.000000
11377.000000	324.000000
11381.000000	324.000000
11384.000000	329.000000
11388.000000	339.000000
11392.000000	336.000000
11396.000000	330.000000
11399.000000	319.000000
11403.000000	314.000000
11406.000000	324.000000
11410.000000	332.000000
11413.000000	330.000000
11417.000000	320.000000
11420.000000	316.000000
11424.000000	320.000000
11427.000000	330.000000
11431.000000	326.000000
11435.000000	316.000000
11439.000000	307.000000
11442.000000	309.000000
11446.000000	318.000000
11449.000000	322.000000
11453.000000	316.000000
11456.000000	304.000000
11460.000000	300.000000
11463.000000	302.000000
11467.000000	312.000000
11470.000000	308.000000
11474.000000	304.000000
11478.000000	302.000000
11481.000000	307.000000
11485.000000	321.000000
11488.000000	333.000000
11492.000000	333.000000
11495.000000	325.000000
11499.000000	325.000000
11502.000000	327.000000
11506.000000	335.000000
11509.000000	338.000000
11513.000000	337.000000
11516.000000	330.000000
11521.000000	326.000000
11524.000000	327.000000
11528.000000	339.000000
11531.000000	340.000000
11535.000000	333.000000
11538.000000	327.000000
11542.000000	327.000000
11545.000000	322.000000
11549.000000	296.000000
11552.000000	250.000000
11556.000000	195.000000
11559.000000	142.000000
11564.000000	103.000000
11567.000000	114.000000
11571.000000	149.000000
11574.000000	210.000000
11578.000000	296.000000
11581.000000	367.000000
11585.000000	400.000000
11588.000000	396.000000
11592.000000	368.000000
11595.000000	336.000000
11599.000000	321.000000
11602.000000	326.000000
11607.000000	344.000000
11610.000000	345.000000
11613.000000	342.000000
11617.000000	337.000000
11620.000000	336.000000
11624.000000	332.000000
11627.000000	336.000000
11631.000000	337.000000
11634.000000	332.000000
11638.000000	328.000000
11641.000000	331.000000
11645.000000	343.000000
11649.000000	344.000000
11653.000000	335.000000
11656.000000	323.000000
11660.000000	321.000000
11663.000000	327.000000
11667.000000	336.000000
11670.000000	332.000000
11674.000000	322.000000
11677.000000	320.000000
11681.000000	319.000000
11684.000000	330.000000
11688.000000	336.000000
11692.000000	332.000000
11696.000000	320.000000
11699.000000	319.000000
11703.000000	324.000000
11706.000000	334.000000
11710.000000	330.000000
11713.000000	323.000000
11717.000000	314.000000
11720.000000	310.000000
11724.000000	318.000000
11727.000000	322.000000
11731.000000	319.000000
11735.000000	317.000000
11739.000000	312.000000
11742.000000	305.000000
11745.000000	313.000000
11749.000000	313.000000
11752.000000	304.000000
11756.000000	297.000000
11759.000000	298.000000
11763.000000	301.000000
11766.000000	306.000000
11770.000000	304.000000
11773.000000	297.000000
11778.000000	293.000000
11781.000000	290.000000
11785.000000	300.000000
11788.000000	301.000000
11792.000000	294.000000
11795.000000	285.000000
11799.000000	281.000000
11802.000000	283.000000
11806.000000	293.000000
11809.000000	295.000000
11813.000000	289.000000
11816.000000	284.000000
11821.000000	284.000000
11824.000000	292.000000
11828.000000	297.000000
11831.000000	292.000000
11835.000000	283.000000
11838.000000	284.000000
11842.000000	293.000000
11845.000000	309.000000
11849.000000	305.000000
11852.000000	294.000000
11856.000000	293.000000
11859.000000	300.000000
11864.000000	320.000000
11867.000000	332.000000
11871.000000	330.000000
11874.000000	322.000000
11877.000000	321.000000
11881.000000	325.000000
11884.000000	337.000000
11888.000000	338.000000
11891.000000	334.000000
11895.000000	331.000000
11898.000000	334.000000
11902.000000	340.000000
11906.000000	347.000000
11910.000000	347.000000
11913.000000	336.000000
11917.000000	329.000000
11920.000000	331.000000
11924.000000	347.000000
11927.000000	350.000000
11931.000000	345.000000
11934.000000	338.000000
11938.000000	334.000000
11941.000000	335.000000
11945.000000	344.000000
11949.000000	349.000000
11953.000000	347.000000
11956.000000	339.000000
11960.000000	332.000000
11963.000000	341.000000
11967.000000	344.000000
11970.000000	340.000000
11974.000000	332.000000
11977.000000	331.000000
11981.000000	334.000000
11984.000000	343.000000
11988.000000	340.000000
11992.000000	334.000000
11996.000000	333.000000
11999.000000	335.000000
12003.000000	342.000000
12006.000000	341.000000
12009.000000	338.000000
12013.000000	329.000000
12016.000000	327.000000
12020.000000	331.000000
12023.000000	340.000000
12027.000000	339.000000
12030.000000	336.000000
12035.000000	329.000000
12038.000000	324.000000
12042.000000	331.000000
12045.000000	344.000000
12049.000000	344.000000
12052.000000	331.000000
12056.000000	328.000000
12059.000000	332.000000
12063.000000	346.000000
12066.000000	344.000000
12070.000000	337.000000
12073.000000	327.000000
12078.000000	325.000000
12081.000000	333.000000
12085.000000	344.000000
12088.000000	342.000000
12092.000000	330.000000
12095.000000	326.000000
12099.000000	328.000000
12102.000000	337.000000
12106.000000	337.000000
12109.000000	334.000000
12113.000000	327.000000
12116.000000	327.000000
12121.000000	329.000000
12124.000000	340.000000
12128.000000	342.000000
12131.000000	332.000000
12134.000000	322.000000
12138.000000	324.000000
12141.000000	336.000000
12145.000000	342.000000
12148.000000	336.000000
12152.000000	325.000000
12155.000000	325.000000
12160.000000	331.000000
12163.000000	342.000000
12167.000000	341.000000
12170.000000	333.000000
12174.000000	330.000000
12177.000000	328.000000
12181.000000	335.000000
12184.000000	342.000000
12188.000000	335.000000
12191.000000	323.000000
12195.000000	323.000000
12198.000000	325.000000
12203.000000	339.000000
12206.000000	337.000000
12210.000000	328.000000
12213.000000	322.000000
12217.000000	319.000000
12220.000000	321.000000
12224.000000	329.000000
12227.000000	331.000000
12231.000000	323.000000
12234.000000	319.000000
12238.000000	319.000000
12241.000000	327.000000
12246.000000	330.000000
12249.000000	326.000000
12253.000000	315.000000
12256.000000	311.000000
12260.000000	312.000000
12263.000000	319.000000
12266.000000	314.000000
12270.000000	309.000000
12273.000000	307.000000
12277.000000	304.000000
12280.000000	313.000000
12284.000000	315.000000
12288.000000	312.000000
12292.000000	308.000000
12295.000000	311.000000
12299.000000	321.000000
12302.000000	339.000000
12306.000000	341.000000
12309.000000	331.000000
12313.000000	323.000000
12316.000000	324.000000
12320.000000	336.000000
12323.000000	344.000000
12327.000000	343.000000
12331.000000	332.000000
12335.000000	323.000000
12338.000000	327.000000
12342.000000	343.000000
12345.000000	347.000000
12349.000000	342.000000
12352.000000	332.000000
12356.000000	317.000000
12359.000000	293.000000
12363.000000	255.000000
12366.000000	210.000000
12370.000000	156.000000
12374.000000	107.000000
12378.000000	94.000000
12381.000000	131.000000
12384.000000	191.000000
12388.000000	274.000000
12391.000000	349.000000
12395.000000	392.000000
12398.000000	397.000000
12402.000000	382.000000
12405.000000	358.000000
12409.000000	338.000000
12412.000000	325.000000
12417.000000	324.000000
12420.000000	335.000000
12424.000000	347.000000
12427.000000	343.000000
12431.000000	333.000000
12434.000000	336.000000
12438.000000	340.000000
12441.000000	348.000000
12445.000000	345.000000
12448.000000	340.000000
12452.000000	334.000000
12455.000000	326.000000
12460.000000	330.000000
12463.000000	340.000000
12467.000000	339.000000
12470.000000	330.000000
12474.000000	327.000000
12477.000000	330.000000
12481.000000	338.000000
12484.000000	333.000000
12487.000000	328.000000
12491.000000	325.000000
12494.000000	328.000000
12498.000000	330.000000
12502.000000	334.000000
12506.000000	330.000000
12509.000000	320.000000
12513.000000	316.000000
12516.000000	318.000000
12520.000000	328.000000
12523.000000	329.000000
12527.000000	323.000000
12530.000000	316.000000
12534.000000	314.000000
12537.000000	316.000000
12541.000000	321.000000
12545.000000	318.000000
12549.000000	309.000000
12552.000000	305.000000
12556.000000	304.000000
12559.000000	313.000000
12563.000000	318.000000
12566.000000	311.000000
12570.000000	302.000000
12573.000000	302.000000
12577.000000	309.000000
12580.000000	317.000000
12584.000000	309.000000
12588.000000	299.000000
12592.000000	293.000000
12595.000000	288.000000
12599.000000	294.000000
12602.000000	297.000000
12606.000000	298.000000
12609.000000	290.000000
12612.000000	285.000000
12616.000000	288.000000
12619.000000	298.000000
12623.000000	295.000000
12626.000000	285.000000
12631.000000	278.000000
12634.000000	278.000000
12638.000000	291.000000
12641.000000	300.000000
12645.000000	296.000000
12648.000000	289.000000
12652.000000	291.000000
12655.000000	296.000000
12659.000000	312.000000
12662.000000	315.000000
12666.000000	312.000000
12669.000000	305.000000
12674.000000	307.000000
12677.000000	321.000000
12681.000000	334.000000
12684.000000	337.000000
12688.000000	329.000000
12691.000000	325.000000
12695.000000	328.000000
12698.000000	338.000000
12702.000000	341.000000
12705.000000	342.000000
12709.000000	337.000000
12712.000000	336.000000
12717.000000	341.000000
12720.000000	352.000000
12724.000000	353.000000
12727.000000	343.000000
12731.000000	336.000000
12734.000000	339.000000
12738.000000	348.000000
12741.000000	350.000000
12744.000000	349.000000
12748.000000	340.000000
12751.000000	332.000000
12755.000000	336.000000
12759.000000	348.000000
12763.000000	344.000000
12766.000000	342.000000
12770.000000	334.000000
12773.000000	331.000000
12777.000000	341.000000
12780.000000	346.000000
12784.000000	342.000000
12787.000000	332.000000
12791.000000	332.000000
12794.000000	339.000000
12798.000000	347.000000
12802.000000	341.000000
12806.000000	336.000000
12809.000000	331.000000
12813.000000	330.000000
12816.000000	336.000000
12820.000000	340.000000
12823.000000	336.000000
12827.000000	331.000000
12830.000000	333.000000
12834.000000	333.000000
12837.000000	341.000000
12841.000000	343.000000
12845.000000	338.000000
12849.000000	330.000000
12852.000000	330.000000
12856.000000	337.000000
12859.000000	344.000000
12863.000000	340.000000
12866.000000	330.000000
12870.000000	327.000000
12873.000000	330.000000
12876.000000	338.000000
12880.000000	340.000000
12883.000000	334.000000
12888.000000	335.000000
12891.000000	337.000000
12895.000000	339.000000
12898.000000	349.000000
12902.000000	346.000000
12905.000000	338.000000
12909.000000	326.000000
12912.000000	324.000000
12916.000000	335.000000
12919.000000	344.000000
12923.000000	344.000000
12926.000000	335.000000
12931.000000	329.000000
12934.000000	331.000000
12938.000000	343.000000
12941.000000	343.000000
12945.000000	340.000000
12948.000000	330.000000
12952.000000	327.000000
12955.000000	332.000000
12959.000000	343.000000
12962.000000	339.000000
12966.000000	330.000000
12969.000000	329.000000
12974.000000	325.000000
12977.000000	337.000000
12981.000000	345.000000
12984.000000	340.000000
12988.000000	330.000000
12991.000000	327.000000
12995.000000	331.000000
12998.000000	341.000000
13002.000000	339.000000
13005.000000	331.000000
13008.000000	328.000000
13012.000000	330.000000
13016.000000	338.000000
13020.000000	338.000000
13023.000000	335.000000
13027.000000	326.000000
13030.000000	326.000000
13034.000000	331.000000
13037.000000	345.000000
13041.000000	342.000000
13044.000000	330.000000
13048.000000	318.000000
13051.000000	316.000000
13056.000000	321.000000
13059.000000	324.000000
13063.000000	322.000000
13066.000000	315.000000
13070.000000	315.000000
13073.000000	321.000000
13077.000000	327.000000
13080.000000	318.000000
13084.000000	312.000000
13087.000000	307.000000
13091.000000	301.000000
13094.000000	308.000000
13099.000000	322.000000
13102.000000	327.000000
13106.000000	327.000000
13109.000000	327.000000
13113.000000	333.000000
13116.000000	344.000000
13120.000000	347.000000
13123.000000	349.000000
13127.000000	345.000000
13130.000000	337.000000
13134.000000	337.000000
13137.000000	342.000000
13140.000000	340.000000
13145.000000	335.000000
13148.000000	333.000000
13152.000000	334.000000
13155.000000	341.000000
13159.000000	344.000000
13162.000000	344.000000
13166.000000	327.000000
13169.000000	304.000000
13173.000000	273.000000
13176.000000	237.000000
13180.000000	183.000000
13184.000000	132.000000
13188.000000	106.000000
13191.000000	130.000000
13195.000000	198.000000
13198.000000	288.000000
13202.000000	359.000000
13205.000000	385.000000
13209.000000	380.000000
13212.000000	362.000000
13216.000000	348.000000
13219.000000	336.000000
13223.000000	332.000000
13227.000000	334.000000
13231.000000	337.000000
13234.000000	343.000000
13238.000000	346.000000
13241.000000	343.000000
13245.000000	347.000000
13248.000000	347.000000
13252.000000	343.000000
13255.000000	348.000000
13259.000000	343.000000
13262.000000	335.000000
13265.000000	332.000000
13270.000000	332.000000
13273.000000	339.000000
13277.000000	346.000000
13280.000000	341.000000
13284.000000	332.000000
13287.000000	328.000000
13291.000000	328.000000
13294.000000	339.000000
13298.000000	341.000000
13301.000000	334.000000
13305.000000	326.000000
13308.000000	321.000000
13313.000000	333.000000
13316.000000	347.000000
13320.000000	339.000000
13323.000000	326.000000
13327.000000	318.000000
13330.000000	320.000000
13334.000000	329.000000
13337.000000	333.000000
13341.000000	325.000000
13344.000000	318.000000
13348.000000	319.000000
13351.000000	319.000000
13356.000000	331.000000
13359.000000	325.000000
13363.000000	316.000000
13366.000000	310.000000
13370.000000	305.000000
13373.000000	311.000000
13377.000000	319.000000
13380.000000	315.000000
13384.000000	303.000000
13387.000000	300.000000
13391.000000	303.000000
13394.000000	312.000000
13398.000000	309.000000
13402.000000	302.000000
13405.000000	296.000000
13409.000000	292.000000
13412.000000	297.000000
13416.000000	304.000000
13419.000000	299.000000
13423.000000	289.000000
13426.000000	285.000000
13430.000000	290.000000
13433.000000	302.000000
13437.000000	299.000000
13441.000000	291.000000
13445.000000	286.000000
13448.000000	285.000000
13452.000000	294.000000
13455.000000	305.000000
13459.000000	302.000000
13462.000000	296.000000
13466.000000	294.000000
13469.000000	300.000000
13473.000000	315.000000
13476.000000	325.000000
13480.000000	322.000000
13484.000000	310.000000
13488.000000	312.000000
13491.000000	321.000000
13495.000000	333.000000
13498.000000	330.000000
13502.000000	329.000000
13505.000000	330.000000
13509.000000	333.000000
13512.000000	342.000000
13516.000000	346.000000
13519.000000	341.000000
13523.000000	333.000000
13527.000000	334.000000
13530.000000	338.000000
13534.000000	351.000000
13537.000000	348.000000
13541.000000	340.000000
13544.000000	338.000000
13548.000000	338.000000
13551.000000	345.000000
13555.000000	351.000000
13558.000000	344.000000
13562.000000	333.000000
13565.000000	334.000000
13570.000000	339.000000
13573.000000	348.000000
13577.000000	347.000000
13580.000000	343.000000
13584.000000	337.000000
13587.000000	333.000000
13591.000000	339.000000
13594.000000	346.000000
13598.000000	343.000000
13601.000000	336.000000
13605.000000	332.000000
13608.000000	330.000000
13613.000000	341.000000
13616.000000	343.000000
13620.000000	339.000000
13623.000000	334.000000
13627.000000	330.000000
13630.000000	334.000000
13634.000000	344.000000
13637.000000	343.000000
13641.000000	334.000000
13644.000000	330.000000
13648.000000	329.000000
13651.000000	337.000000
13656.000000	341.000000
13659.000000	339.000000
13662.000000	327.000000
13666.000000	327.000000
13669.000000	333.000000
13673.000000	344.000000
13676.000000	340.000000
13680.000000	335.000000
13683.000000	328.000000
13687.000000	323.000000
13690.000000	331.000000
13694.000000	341.000000
13698.000000	341.000000
13702.000000	330.000000
13705.000000	325.000000
13709.000000	329.000000
13712.000000	341.000000
13716.000000	338.000000
13719.000000	334.000000
13723.000000	327.000000
13726.000000	325.000000
13730.000000	334.000000
13733.000000	341.000000
13737.000000	339.000000
13741.000000	330.000000
13745.000000	325.000000
13748.000000	328.000000
13752.000000	341.000000
13755.000000	340.000000
13759.000000	332.000000
13762.000000	327.000000
13766.000000	328.000000
13769.000000	326.000000
13773.000000	337.000000
13776.000000	335.000000
13780.000000	329.000000
13784.000000	327.000000
13788.000000	326.000000
13791.000000	335.000000
13794.000000	339.000000
13798.000000	334.000000
13801.000000	323.000000
13805.000000	321.000000
13808.000000	333.000000
13812.000000	344.000000
13815.000000	335.000000
13819.000000	325.000000
13822.000000	323.000000
13827.000000	325.000000
13830.000000	332.000000
13834.000000	340.000000
13837.000000	336.000000
13841.000000	327.000000
13844.000000	323.000000
13848.000000	322.000000
13851.000000	335.000000
13855.000000	335.000000
13858.000000	330.000000
13862.000000	323.000000
13865.000000	321.000000
13870.000000	325.000000
13873.000000	332.000000
13877.000000	328.000000
13880.000000	319.000000
13884.000000	317.000000
13887.000000	315.000000
13891.000000	323.000000
13894.000000	320.000000
13898.000000	312.000000
13901.000000	304.000000
13905.000000	306.000000
13908.000000	315.000000
13913.000000	322.000000
13916.000000	314.000000
13919.000000	299.000000
13923.000000	296.000000
13926.000000	299.000000
13930.000000	310.000000
13933.000000	313.000000
13937.000000	312.000000
13940.000000	313.000000
13944.000000	322.000000
13947.000000	333.000000
13952.000000	343.000000
13955.000000	340.000000
13959.000000	332.000000
13962.000000	326.000000
13966.000000	325.000000
13969.000000	332.000000
13973.000000	339.000000
13976.000000	335.000000
13980.000000	325.000000
13983.000000	325.000000
13987.000000	332.000000
13990.000000	347.000000
13995.000000	345.000000
13998.000000	337.000000
14002.000000	311.000000
14005.000000	281.000000
14009.000000	252.000000
14012.000000	211.000000
14016.000000	157.000000
14019.000000	111.000000
14023.000000	105.000000
14026.000000	141.000000
14030.000000	231.000000
14033.000000	323.000000
14038.000000	375.000000
14041.000000	384.000000
14045.000000	364.000000
14048.000000	347.000000
14051.000000	337.000000
14055.000000	328.000000
14058.000000	328.000000
14062.000000	334.000000
14065.000000	333.000000
14069.000000	338.000000
14072.000000	340.000000
14076.000000	339.000000
14080.000000	332.000000
14084.000000	328.000000
14087.000000	332.000000
14091.000000	341.000000
14094.000000	340.000000
14098.000000	337.000000
14101.000000	334.000000
14105.000000	333.000000
14108.000000	340.000000
14112.000000	343.000000
14115.000000	339.000000
14119.000000	330.000000
14123.000000	331.000000
14127.000000	336.000000
14130.000000	334.000000
14134.000000	326.000000
14137.000000	320.000000
14141.000000	315.000000
14144.000000	317.000000
14148.000000	325.000000
14151.000000	331.000000
14155.000000	329.000000
14158.000000	321.000000
14162.000000	317.000000
14166.000000	321.000000
14170.000000	330.000000
14173.000000	328.000000
14177.000000	320.000000
14180.000000	316.000000
14183.000000	317.000000
14187.000000	320.000000
14190.000000	324.000000
14194.000000	319.000000
14197.000000	312.000000
14201.000000	309.000000
14204.000000	309.000000
14209.000000	315.000000
14212.000000	313.000000
14216.000000	311.000000
14219.000000	301.000000
14223.000000	298.000000
14226.000000	300.000000
14230.000000	304.000000
14233.000000	301.000000
14237.000000	297.000000
14240.000000	294.000000
14244.000000	299.000000
14247.000000	305.000000
14252.000000	301.000000
14255.000000	292.000000
14259.000000	282.000000
14262.000000	282.000000
14266.000000	283.000000
14269.000000	294.000000
14273.000000	294.000000
14276.000000	290.000000
14280.000000	286.000000
14283.000000	288.000000
14287.000000	296.000000
14290.000000	302.000000
14295.000000	298.000000
14298.000000	291.000000
14302.000000	292.000000
14305.000000	298.000000
14309.000000	313.000000
14312.000000	316.000000
14315.000000	311.000000
14319.000000	309.000000
14322.000000	317.000000
14326.000000	333.000000
14329.000000	340.000000
14333.000000	336.000000
14337.000000	330.000000
14341.000000	327.000000
14344.000000	331.000000
14348.000000	345.000000
14351.000000	346.000000
14355.000000	340.000000
14358.000000	335.000000
14362.000000	334.000000
14365.000000	336.000000
14369.000000	347.000000
14372.000000	348.000000
14376.000000	340.000000
14380.000000	335.000000
14384.000000	336.000000
14387.000000	346.000000
14391.000000	345.000000
14394.000000	344.000000
14398.000000	337.000000
14401.000000	337.000000
14405.000000	339.000000
14408.000000	352.000000
14412.000000	349.000000
14415.000000	339.000000
14419.000000	333.000000
14423.000000	333.000000
14427.000000	344.000000
14430.000000	347.000000
14434.000000	338.000000
14437.000000	333.000000
14440.000000	333.000000
14444.000000	333.000000
14447.000000	342.000000
14451.000000	342.000000
14454.000000	338.000000
14458.000000	338.000000
14461.000000	341.000000
14466.000000	345.000000
14469.000000	343.000000
14473.000000	334.000000
14476.000000	321.000000
14480.000000	319.000000
14483.000000	328.000000
14487.000000	338.000000
14490.000000	336.000000
14494.000000	337.000000
14497.000000	331.000000
14501.000000	329.000000
14504.000000	336.000000
14509.000000	344.000000
14512.000000	337.000000
14516.000000	329.000000
14519.000000	326.000000
14523.000000	328.000000
14526.000000	340.000000
14530.000000	342.000000
14533.000000	336.000000
14537.000000	327.000000
14540.000000	325.000000
14544.000000	330.000000
14547.000000	344.000000
14552.000000	342.000000
14555.000000	336.000000
14559.000000	329.000000
14562.000000	327.000000
14566.000000	337.000000
14569.000000	341.000000
14572.000000	334.000000
14576.000000	327.000000
14579.000000	326.000000
14583.000000	327.000000
14586.000000	335.000000
14590.000000	339.000000
14594.000000	341.000000
14598.000000	331.000000
14601.000000	326.000000
14605.000000	336.000000
14608.000000	346.000000
14612.000000	341.000000
14615.000000	329.000000
14619.000000	325.000000
14622.000000	327.000000
14626.000000	338.000000
14629.000000	337.000000
14633.000000	332.000000
14637.000000	328.000000
14641.000000	326.000000
14644.000000	330.000000
14648.000000	339.000000
14651.000000	339.000000
14655.000000	330.000000
14658.000000	328.000000
14662.000000	330.000000
14665.000000	333.000000
14669.000000	328.000000
14672.000000	329.000000
14676.000000	329.000000
14680.000000	333.000000
14684.000000	335.000000
14687.000000	340.000000
14691.000000	334.000000
14694.000000	325.000000
14698.000000	319.000000
14701.000000	324.000000
14704.000000	337.000000
14708.000000	336.000000
14711.000000	327.000000
14715.000000	320.000000
14718.000000	318.000000
14723.000000	321.000000
14726.000000	329.000000
14730.000000	325.000000
14733.000000	324.000000
14737.000000	317.000000
14740.000000	310.000000
14744.000000	312.000000
14747.000000	317.000000
14751.000000	320.000000
14754.000000	312.000000
14758.000000	310.000000
14761.000000	307.000000
14766.000000	312.000000
14769.000000	306.000000
14773.000000	302.000000
14776.000000	298.000000
14780.000000	299.000000
14783.000000	307.000000
14787.000000	317.000000
14790.000000	320.000000
14794.000000	325.000000
14797.000000	327.000000
14801.000000	330.000000
14804.000000	337.000000
14809.000000	337.000000
14812.000000	333.000000
14816.000000	332.000000
14819.000000	333.000000
14823.000000	334.000000
14826.000000	337.000000
14830.000000	334.000000
14833.000000	326.000000
14836.000000	322.000000
14840.000000	331.000000
14843.000000	344.000000
14848.000000	344.000000
14851.000000	332.000000
14855.000000	303.000000
14858.000000	265.000000
14862.000000	219.000000
14865.000000	177.000000
14869.000000	127.000000
14872.000000	100.000000
14876.000000	122.000000
14879.000000	187.000000
14883.000000	286.000000
14886.000000	369.000000
14891.000000	405.000000
14894.000000	386.000000
14898.000000	358.000000
14901.000000	336.000000
14905.000000	337.000000
14908.000000	333.000000
14912.000000	332.000000
14915.000000	330.000000
14919.000000	330.000000
14922.000000	337.000000
14926.000000	341.000000
14929.000000	340.000000
14934.000000	335.000000
14937.000000	330.000000
14941.000000	331.000000
14944.000000	342.000000
14948.000000	343.000000
14951.000000	336.000000
14955.000000	332.000000
14958.000000	329.000000
14962.000000	330.000000
14965.000000	343.000000
14968.000000	336.000000
14972.000000	327.000000
14976.000000	325.000000
14980.000000	324.000000
14983.000000	332.000000
14987.000000	335.000000
14990.000000	327.000000
14994.000000	319.000000
14997.000000	317.000000
15001.000000	318.000000
15004.000000	331.000000
15008.000000	328.000000
15011.000000	321.000000
15015.000000	315.000000
15019.000000	315.000000
15023.000000	322.000000
15026.000000	328.000000
15030.000000	325.000000
15033.000000	314.000000
15037.000000	312.000000
15040.000000	311.000000
15044.000000	317.000000
15047.000000	315.000000
15051.000000	312.000000
15054.000000	305.000000
15058.000000	305.000000
15062.000000	310.000000
15066.000000	311.000000
15069.000000	306.000000
15073.000000	300.000000
15076.000000	298.000000
15080.000000	301.000000
15083.000000	313.000000
15087.000000	311.000000
15090.000000	297.000000
15093.000000	288.000000
15097.000000	287.000000
15100.000000	293.000000
15105.000000	299.000000
15108.000000	292.000000
15112.000000	286.000000
15115.000000	283.000000
15119.000000	286.000000
15122.000000	293.000000
15126.000000	295.000000
15129.000000	293.000000
15133.000000	289.000000
15136.000000	282.000000
15140.000000	286.000000
15143.000000	298.000000
15148.000000	299.000000
15151.000000	296.000000
15155.000000	296.000000
15158.000000	300.000000
15162.000000	312.000000
15165.000000	318.000000
15169.000000	320.000000
15172.000000	317.000000
15176.000000	315.000000
15179.000000	321.000000
15183.000000	332.000000
15186.000000	334.000000
15191.000000	332.000000
15194.000000	329.000000
15198.000000	330.000000
15201.000000	338.000000
15205.000000	342.000000
15208.000000	338.000000
15212.000000	332.000000
15215.000000	336.000000
15219.000000	337.000000
15222.000000	346.000000
15225.000000	346.000000
15229.000000	341.000000
15233.000000	334.000000
15237.000000	336.000000
15240.000000	347.000000
15244.000000	351.000000
15247.000000	347.000000
15251.000000	341.000000
15254.000000	338.000000
15258.000000	336.000000
15261.000000	341.000000
15265.000000	346.000000
15268.000000	341.000000
15272.000000	336.000000
15276.000000	335.000000
15280.000000	337.000000
15283.000000	346.000000
15287.000000	344.000000
15290.000000	338.000000
15294.000000	335.000000
15297.000000	331.000000
15301.000000	338.000000
15304.000000	339.000000
15308.000000	335.000000
15311.000000	331.000000
15315.000000	330.000000
15319.000000	333.000000
15323.000000	341.000000
15326.000000	341.000000
15330.000000	335.000000
15333.000000	328.000000
15337.000000	330.000000
15340.000000	339.000000
15344.000000	345.000000
15347.000000	343.000000
15351.000000	334.000000
15354.000000	328.000000
15357.000000	330.000000
15362.000000	340.000000
15365.000000	338.000000
15369.000000	336.000000
15372.000000	333.000000
15376.000000	330.000000
15379.000000	334.000000
15383.000000	341.000000
15386.000000	340.000000
15390.000000	332.000000
15393.000000	325.000000
15397.000000	325.000000
15400.000000	337.000000
15405.000000	343.000000
15408.000000	339.000000
15412.000000	329.000000
15415.000000	329.000000
15419.000000	337.000000
15422.000000	346.000000
15426.000000	339.000000
15429.000000	330.000000
15433.000000	326.000000
15436.000000	327.000000
15440.000000	333.000000
15443.000000	338.000000
15448.000000	338.000000
15451.000000	331.000000
15455.000000	330.000000
15458.000000	333.000000
15462.000000	344.000000
15465.000000	344.000000
15469.000000	336.000000
15472.000000	328.000000
15476.000000	322.000000
15479.000000	328.000000
15483.000000	335.000000
15486.000000	334.000000
15490.000000	329.000000
15494.000000	330.000000
15497.000000	325.000000
15501.000000	337.000000
15504.000000	338.000000
15508.000000	333.000000
15511.000000	328.000000
15515.000000	327.000000
15518.000000	331.000000
15522.000000	338.000000
15525.000000	335.000000
15529.000000	327.000000
15533.000000	326.000000
15537.000000	326.000000
15540.000000	332.000000
15544.000000	334.000000
15547.000000	332.000000
15551.000000	328.000000
15554.000000	327.000000
15558.000000	331.000000
15561.000000	337.000000
15565.000000	333.000000
15568.000000	326.000000
15572.000000	323.000000
15576.000000	319.000000
15580.000000	327.000000
15583.000000	329.000000
15587.000000	322.000000
15590.000000	317.000000
15594.000000	319.000000
15597.000000	316.000000
15601.000000	321.000000
15604.000000	319.000000
15608.000000	313.000000
15611.000000	303.000000
15616.000000	305.000000
15619.000000	312.000000
15622.000000	313.000000
15626.000000	304.000000
15629.000000	294.000000
15633.000000	298.000000
15636.000000	303.000000
15640.000000	314.000000
15643.000000	315.000000
15647.000000	315.000000
15650.000000	318.000000
15654.000000	325.000000
15657.000000	336.000000
15662.000000	344.000000
15665.000000	339.000000
15669.000000	327.000000
15672.000000	326.000000
15676.000000	332.000000
15679.000000	338.000000
15683.000000	336.000000
15686.000000	334.000000
15690.000000	332.000000
15693.000000	328.000000
15697.000000	328.000000
15700.000000	337.000000
15705.000000	338.000000
15708.000000	331.000000
15712.000000	305.000000
15715.000000	265.000000
15719.000000	230.000000
15722.000000	184.000000
15726.000000	130.000000
15729.000000	92.000000
15732.000000	103.000000
15736.000000	159.000000
15739.000000	258.000000
15744.000000	344.000000
15747.000000	393.000000
15751.000000	398.000000
15754.000000	380.000000
15758.000000	357.000000
15761.000000	341.000000
15765.000000	336.000000
15768.000000	327.000000
15772.000000	326.000000
15775.000000	330.000000
15779.000000	344.000000
15782.000000	344.000000
15787.000000	337.000000
15790.000000	325.000000
15794.000000	328.000000
15797.000000	337.000000
15801.000000	345.000000
15804.000000	344.000000
15808.000000	337.000000
15811.000000	335.000000
15815.000000	335.000000
15818.000000	342.000000
15822.000000	339.000000
15825.000000	332.000000
15830.000000	325.000000
15833.000000	324.000000
15836.000000	324.000000
15840.000000	335.000000
15843.000000	336.000000
15847.000000	329.000000
15850.000000	325.000000
15854.000000	328.000000
15857.000000	337.000000
15861.000000	328.000000
15864.000000	320.000000
15868.000000	314.000000
15872.000000	309.000000
15876.000000	312.000000
15879.000000	328.000000
15883.000000	329.000000
15886.000000	317.000000
15890.000000	312.000000
15893.000000	312.000000
15897.000000	317.000000
15900.000000	314.000000
15904.000000	312.000000
15907.000000	307.000000
15911.000000	308.000000
15915.000000	311.000000
15919.000000	317.000000
15922.000000	311.000000
15926.000000	301.000000
15929.000000	292.000000
15933.000000	295.000000
15936.000000	301.000000
15940.000000	307.000000
15943.000000	303.000000
15947.000000	290.000000
15950.000000	286.000000
15954.000000	286.000000
15958.000000	292.000000
15962.000000	290.000000
15965.000000	288.000000
15968.000000	280.000000
15972.000000	280.000000
15975.000000	286.000000
15979.000000	292.000000
15982.000000	289.000000
15986.000000	282.000000
15989.000000	285.000000
15993.000000	292.000000
15996.000000	298.000000
16001.000000	292.000000
16004.000000	285.000000
16008.000000	278.000000
16011.000000	282.000000
16015.000000	295.000000
16018.000000	315.000000
16022.000000	322.000000
16025.000000	309.000000
16029.000000	304.000000
16032.000000	311.000000
16036.000000	322.000000
16039.000000	326.000000
16044.000000	332.000000
16047.000000	330.000000
16051.000000	325.000000
16054.000000	329.000000
16058.000000	343.000000
16061.000000	341.000000
16065.000000	335.000000
16068.000000	334.000000
16072.000000	335.000000
16075.000000	340.000000
16079.000000	342.000000
16082.000000	342.000000
16087.000000	336.000000
16090.000000	337.000000
16094.000000	341.000000
16097.000000	342.000000
16100.000000	336.000000
16104.000000	330.000000
16107.000000	327.000000
16111.000000	329.000000
16114.000000	337.000000
16118.000000	344.000000
16121.000000	347.000000
16125.000000	337.000000
16129.000000	331.000000
16133.000000	335.000000
16136.000000	342.000000
16140.000000	342.000000
16143.000000	337.000000
16147.000000	328.000000
16150.000000	324.000000
16154.000000	324.000000
16157.000000	335.000000
16161.000000	334.000000
16164.000000	329.000000
16168.000000	324.000000
16172.000000	323.000000
16176.000000	331.000000
16179.000000	342.000000
16183.000000	337.000000
16186.000000	332.000000
16190.000000	328.000000
16193.000000	328.000000
16197.000000	336.000000
16200.000000	333.000000
16204.000000	325.000000
16207.000000	320.000000
16211.000000	326.000000
16215.000000	335.000000
16219.000000	338.000000
16222.000000	340.000000
16225.000000	329.000000
16229.000000	331.000000
16232.000000	335.000000
16236.000000	353.000000
16239.000000	350.000000
16243.000000	324.000000
16246.000000	309.000000
16250.000000	316.000000
16253.000000	329.000000
16258.000000	339.000000
16261.000000	339.000000
16265.000000	335.000000
16268.000000	332.000000
16272.000000	334.000000
16275.000000	330.000000
16279.000000	328.000000
16282.000000	328.000000
16286.000000	322.000000
16289.000000	323.000000
16293.000000	330.000000
16296.000000	336.000000
16301.000000	332.000000
16304.000000	330.000000
16308.000000	328.000000
16311.000000	325.000000
16315.000000	331.000000
16318.000000	338.000000
16322.000000	327.000000
16325.000000	319.000000
16329.000000	321.000000
16332.000000	329.000000
16336.000000	337.000000
16339.000000	332.000000
16344.000000	327.000000
16347.000000	317.000000
16351.000000	322.000000
16354.000000	332.000000
16357.000000	335.000000
16361.000000	326.000000
16364.000000	333.000000
16368.000000	332.000000
16371.000000	321.000000
16375.000000	332.000000
16378.000000	327.000000
16382.000000	320.000000
16386.000000	325.000000
16390.000000	323.000000
16393.000000	320.000000
16397.000000	330.000000
16400.000000	331.000000
16404.000000	323.000000
16407.000000	312.000000
16411.000000	313.000000
16414.000000	332.000000
16418.000000	348.000000
